,R
0,197
1,459
2,708
3,965
4,1222
5,1479
6,1741
7,2015
8,2287
9,2550
10,2803
11,3052
12,3303
13,3563
14,3835
15,4102
16,4371
17,4635
18,4901
19,5154
20,5407
21,5561
22,5923
23,6195
24,6468
25,6736
26,6996
27,7246
28,7506
29,7767
30,7922
31,8290
32,8564
33,8829
34,9093
35,9350
36,9600
37,9845
38,10105
39,10380
40,10645
41,10908
42,11168
43,11424
44,11676
45,11931
46,12187
47,12449
48,12625
49,12987
50,13252
51,13507
52,13755
53,14006
54,14253
55,14517
56,14786
57,15053
58,15311
59,15575
60,15834
61,16084
62,16335
63,16590
64,16854
65,17128
66,17398
67,17660
68,17916
69,18168
70,18426
71,18682
72,18946
73,19213
74,19483
75,19747
76,20008
77,20262
78,20515
79,20764
80,21031
81,21202
82,21576
83,21838
84,22100
85,22351
86,22604
87,22860
88,23114
89,23376
90,23641
91,23916
92,24180
93,24429
94,24677
95,24842
96,25191
97,25462
98,25732
99,25997
100,26254
101,26516
102,26771
103,27020
104,27273
105,27529
106,27795
107,28066
108,28335
109,28590
110,28835
111,29089
112,29349
113,29605
114,29869
115,30137
116,30401
117,30662
118,30917
119,31165
120,31416
121,31669
122,31934
123,32207
124,32476
125,32735
126,32986
127,33234
128,33490
129,33749
130,34010
131,34274
132,34542
133,34818
134,35076
135,35322
136,35571
137,35830
138,36093
139,36366
140,36633
141,36793
142,37151
143,37413
144,37666
145,37915
146,38166
147,38430
148,38692
149,38959
150,39225
151,39477
152,39720
153,39975
154,40231
155,40489
156,40745
157,41009
158,41272
159,41527
160,41781
161,42027
162,42274
163,42524
164,42793
165,43058
166,43322
167,43573
168,43819
169,44061
170,44313
171,44567
172,44816
173,45075
174,45339
175,45608
176,45763
177,46102
178,46347
179,46594
180,46844
181,47107
182,47371
183,47635
184,47888
185,48140
186,48393
187,48643
188,48889
189,49144
190,49410
191,49678
192,49943
193,50198
194,50448
195,50692
196,50949
197,51207
198,51472
199,51736
200,52001
201,52257
202,52512
203,52769
204,53020
205,53271
206,53537
207,53815
208,54078
209,54333
210,54588
211,54837
212,55091
213,55349
214,55607
215,55873
216,56140
217,56413
218,56667
219,56918
220,57165
221,57314
222,57666
223,57941
224,58210
225,58473
226,58730
227,58985
228,59239
229,59493
230,59742
231,60003
232,60270
233,60543
234,60808
235,61062
236,61311
237,61559
238,61819
239,62081
240,62349
241,62609
242,62876
243,63129
244,63382
245,63635
246,63886
247,64135
248,64400
249,64674
250,64937
251,65187
252,65437
253,65686
254,65933
255,66189
256,66444
257,66706
258,66867
259,67228
260,67487
261,67736
262,67978
263,68225
264,68475
265,68740
266,69009
267,69269
268,69522
269,69772
270,70027
271,70273
272,70523
273,70780
274,71046
275,71311
276,71579
277,71831
278,72079
279,72326
280,72485
281,72846
282,73117
283,73378
284,73643
285,73903
286,74159
287,74299
288,74659
289,74917
290,75183
291,75459
292,75727
293,75983
294,76232
295,76484
296,76736
297,76996
298,77257
299,77526
300,77787
301,78055
302,78312
303,78561
304,78807
305,79062
306,79316
307,79584
308,79856
309,80120
310,80369
311,80624
312,80882
313,81130
314,81379
315,81641
316,81906
317,82171
318,82437
319,82690
320,82934
321,83182
322,83444
323,83703
324,83970
325,84231
326,84493
327,84746
328,85003
329,85257
330,85506
331,85760
332,86031
333,86305
334,86570
335,86821
336,87072
337,87318
338,87572
339,87832
340,88094
341,88365
342,88631
343,88901
344,89157
345,89408
346,89656
347,89912
348,90172
349,90444
350,90715
351,90981
352,91233
353,91486
354,91746
355,92000
356,92254
357,92522
358,92791
359,93060
360,93330
361,93583
362,93829
363,94084
364,94354
365,94619
366,94885
367,95156
368,95424
369,95681
370,95936
371,96189
372,96445
373,96707
374,96985
375,97256
376,97522
377,97777
378,98030
379,98278
380,98541
381,98809
382,99077
383,99343
384,99617
385,99881
386,100135
387,100383
388,100635
389,100894
390,101165
391,101440
392,101700
393,101958
394,102114
395,102469
396,102720
397,102973
398,103234
399,103501
400,103763
401,104025
402,104278
403,104528
404,104771
405,105027
406,105293
407,105559
408,105817
409,106081
410,106338
411,106589
412,106842
413,107090
414,107344
415,107603
416,107876
417,108026
418,108394
419,108646
420,108896
421,109140
422,109396
423,109661
424,109926
425,110187
426,110453
427,110715
428,110963
429,111206
430,111456
431,111711
432,111976
433,112247
434,112508
435,112762
436,113014
437,113270
438,113518
439,113773
440,114034
441,114304
442,114567
443,114833
444,115088
445,115337
446,115582
447,115838
448,116104
449,116375
450,116638
451,116900
452,117157
453,117412
454,117667
455,117917
456,118173
457,118343
458,118714
459,118982
460,119238
461,119486
462,119737
463,119988
464,120243
465,120508
466,120776
467,121034
468,121301
469,121560
470,121812
471,122056
472,122311
473,122568
474,122838
475,123113
476,123377
477,123628
478,123879
479,124141
480,124392
481,124644
482,124911
483,125182
484,125449
485,125715
486,125969
487,126111
488,126467
489,126734
490,127000
491,127270
492,127536
493,127798
494,128052
495,128309
496,128565
497,128820
498,129080
499,129351
500,129626
501,129891
502,130143
503,130392
504,130645
505,130900
506,131161
507,131425
508,131691
509,131954
510,132219
511,132469
512,132718
513,132964
514,133223
515,133485
516,133758
517,134026
518,134289
519,134536
520,134789
521,135047
522,135304
523,135559
524,135828
525,136095
526,136365
527,136626
528,136878
529,137126
530,137379
531,137650
532,137917
533,138184
534,138448
535,138713
536,138962
537,139219
538,139474
539,139730
540,139994
541,140273
542,140545
543,140808
544,141061
545,141309
546,141559
547,141823
548,142093
549,142360
550,142624
551,142894
552,143156
553,143409
554,143657
555,143912
556,144176
557,144449
558,144722
559,144986
560,145245
561,145496
562,145753
563,146008
564,146267
565,146531
566,146801
567,146948
568,147327
569,147583
570,147834
571,148082
572,148342
573,148613
574,148885
575,149143
576,149402
577,149654
578,149905
579,150161
580,150414
581,150672
582,150937
583,151213
584,151473
585,151724
586,151972
587,152224
588,152474
589,152734
590,153001
591,153268
592,153530
593,153796
594,154053
595,154305
596,154556
597,154816
598,155079
599,155354
600,155628
601,155886
602,156137
603,156390
604,156647
605,156804
606,157166
607,157432
608,157698
609,157964
610,158223
611,158470
612,158719
613,158968
614,159231
615,159497
616,159765
617,160028
618,160283
619,160531
620,160782
621,161035
622,161288
623,161547
624,161815
625,162090
626,162350
627,162595
628,162842
629,163094
630,163347
631,163608
632,163759
633,164142
634,164406
635,164669
636,164923
637,165172
638,165421
639,165681
640,165846
641,166216
642,166493
643,166752
644,166999
645,167254
646,167512
647,167769
648,168028
649,168297
650,168562
651,168827
652,169088
653,169335
654,169586
655,169843
656,170115
657,170382
658,170650
659,170916
660,171176
661,171428
662,171683
663,171937
664,172198
665,172461
666,172732
667,173000
668,173262
669,173510
670,173758
671,173932
672,174273
673,174543
674,174806
675,175072
676,175329
677,175591
678,175839
679,176088
680,176337
681,176601
682,176871
683,177138
684,177402
685,177659
686,177902
687,178156
688,178413
689,178670
690,178925
691,179192
692,179453
693,179713
694,179972
695,180217
696,180463
697,180721
698,180995
699,181259
700,181522
701,181784
702,182039
703,182289
704,182544
705,182799
706,183060
707,183323
708,183598
709,183866
710,184124
711,184373
712,184621
713,184872
714,185138
715,185410
716,185677
717,185942
718,186205
719,186465
720,186718
721,186967
722,187223
723,187490
724,187762
725,188031
726,188289
727,188543
728,188790
729,189047
730,189300
731,189560
732,189821
733,190092
734,190356
735,190613
736,190867
737,191117
738,191365
739,191627
740,191901
741,192170
742,192430
743,192692
744,192943
745,193196
746,193453
747,193711
748,193976
749,194244
750,194520
751,194784
752,195037
753,195287
754,195542
755,195798
756,196069
757,196339
758,196607
759,196870
760,197136
761,197392
762,197646
763,197901
764,198164
765,198328
766,198704
767,198974
768,199229
769,199477
770,199731
771,199987
772,200243
773,200503
774,200765
775,201029
776,201291
777,201545
778,201790
779,202040
780,202295
781,202561
782,202829
783,203096
784,203354
785,203609
786,203858
787,204110
788,204367
789,204629
790,204889
791,205158
792,205431
793,205691
794,205935
795,206183
796,206436
797,206697
798,206967
799,207237
800,207501
801,207765
802,208030
803,208281
804,208530
805,208788
806,209058
807,209328
808,209602
809,209868
810,210125
811,210373
812,210634
813,210892
814,211157
815,211424
816,211691
817,211952
818,212213
819,212473
820,212720
821,212971
822,213236
823,213513
824,213784
825,214048
826,214309
827,214564
828,214821
829,215081
830,215338
831,215605
832,215876
833,216154
834,216417
835,216672
836,216922
837,217179
838,217436
839,217704
840,217978
841,218247
842,218507
843,218766
844,219023
845,219277
846,219529
847,219792
848,220061
849,220334
850,220607
851,220867
852,221115
853,221371
854,221634
855,221897
856,222161
857,222431
858,222700
859,222962
860,223225
861,223476
862,223730
863,223990
864,224268
865,224537
866,224806
867,225067
868,225324
869,225578
870,225838
871,226096
872,226362
873,226629
874,226905
875,227170
876,227426
877,227678
878,227932
879,228185
880,228455
881,228729
882,228998
883,229260
884,229523
885,229780
886,230035
887,230288
888,230548
889,230817
890,231091
891,231261
892,231623
893,231878
894,232128
895,232390
896,232656
897,232920
898,233189
899,233461
900,233724
901,233984
902,234237
903,234491
904,234747
905,235025
906,235299
907,235568
908,235831
909,236091
910,236343
911,236599
912,236862
913,237132
914,237399
915,237676
916,237945
917,238086
918,238446
919,238699
920,238952
921,239215
922,239493
923,239760
924,240018
925,240279
926,240537
927,240789
928,241036
929,241292
930,241560
931,241828
932,241980
933,242352
934,242609
935,242856
936,243108
937,243366
938,243631
939,243894
940,244157
941,244417
942,244673
943,244925
944,245172
945,245422
946,245684
947,245958
948,246225
949,246484
950,246739
951,246994
952,247245
953,247498
954,247754
955,248018
956,248282
957,248556
958,248816
959,249067
960,249312
961,249564
962,249816
963,250084
964,250360
965,250625
966,250883
967,251139
968,251398
969,251649
970,251896
971,252158
972,252424
973,252697
974,252969
975,253225
976,253475
977,253729
978,253992
979,254253
980,254424
981,254793
982,255064
983,255326
984,255588
985,255840
986,256094
987,256354
988,256630
989,256905
990,257179
991,257444
992,257700
993,257955
994,258217
995,258482
996,258752
997,259022
998,259299
999,259572
1000,259831
1001,260083
1002,260338
1003,260599
1004,260873
1005,261155
1006,261430
1007,261697
1008,261961
1009,262226
1010,262486
1011,262738
1012,263006
1013,263281
1014,263557
1015,263832
1016,264093
1017,264344
1018,264601
1019,264869
1020,265132
1021,265400
1022,265673
1023,265944
1024,266208
1025,266471
1026,266725
1027,266979
1028,267244
1029,267526
1030,267796
1031,268066
1032,268328
1033,268584
1034,268838
1035,269099
1036,269362
1037,269524
1038,269898
1039,270176
1040,270439
1041,270698
1042,270947
1043,271199
1044,271456
1045,271728
1046,272001
1047,272267
1048,272528
1049,272789
1050,273048
1051,273304
1052,273558
1053,273821
1054,274092
1055,274369
1056,274638
1057,274894
1058,275145
1059,275397
1060,275661
1061,275922
1062,276186
1063,276453
1064,276721
1065,276980
1066,277232
1067,277485
1068,277741
1069,277995
1070,278270
1071,278543
1072,278813
1073,279072
1074,279327
1075,279576
1076,279832
1077,280099
1078,280363
1079,280624
1080,280895
1081,281166
1082,281419
1083,281662
1084,281913
1085,282166
1086,282430
1087,282703
1088,282967
1089,283230
1090,283487
1091,283746
1092,283993
1093,284243
1094,284500
1095,284766
1096,285030
1097,285297
1098,285556
1099,285807
1100,286053
1101,286306
1102,286561
1103,286826
1104,287088
1105,287351
1106,287611
1107,287869
1108,288122
1109,288368
1110,288619
1111,288874
1112,289146
1113,289415
1114,289678
1115,289928
1116,290180
1117,290428
1118,290682
1119,290943
1120,291208
1121,291470
1122,291741
1123,292008
1124,292262
1125,292505
1126,292755
1127,293010
1128,293273
1129,293546
1130,293811
1131,294069
1132,294324
1133,294583
1134,294830
1135,295079
1136,295337
1137,295603
1138,295865
1139,296132
1140,296391
1141,296540
1142,296884
1143,297141
1144,297399
1145,297662
1146,297923
1147,298184
1148,298441
1149,298698
1150,298951
1151,299197
1152,299445
1153,299704
1154,299977
1155,300242
1156,300504
1157,300755
1158,301006
1159,301255
1160,301511
1161,301767
1162,302032
1163,302295
1164,302560
1165,302821
1166,303073
1167,303314
1168,303561
1169,303812
1170,304076
1171,304344
1172,304606
1173,304863
1174,305113
1175,305365
1176,305610
1177,305855
1178,306104
1179,306367
1180,306626
1181,306887
1182,307144
1183,307391
1184,307628
1185,307875
1186,308132
1187,308391
1188,308647
1189,308905
1190,309165
1191,309415
1192,309664
1193,309909
1194,310151
1195,310400
1196,310667
1197,310931
1198,311191
1199,311441
1200,311582
1201,311927
1202,312177
1203,312430
1204,312680
1205,312936
1206,313195
1207,313458
1208,313702
1209,313943
1210,314180
1211,314406
1212,314659
1213,314911
1214,315173
1215,315417
1216,315665
1217,315907
1218,316146
1219,316385
1220,316625
1221,316868
1222,317120
1223,317375
1224,317634
1225,317891
1226,318134
1227,318375
1228,318616
1229,318869
1230,319121
1231,319376
1232,319630
1233,319891
1234,320143
1235,320388
1236,320633
1237,320880
1238,321125
1239,321384
1240,321652
1241,321913
1242,322162
1243,322411
1244,322658
1245,322904
1246,323154
1247,323406
1248,323668
1249,323929
1250,324194
1251,324453
1252,324702
1253,324945
1254,325196
1255,325444
1256,325708
1257,325981
1258,326241
1259,326496
1260,326751
1261,327009
1262,327257
1263,327509
1264,327766
1265,328035
1266,328303
1267,328571
1268,328829
1269,329079
1270,329330
1271,329589
1272,329852
1273,330120
1274,330387
1275,330652
1276,330912
1277,331169
1278,331422
1279,331673
1280,331928
1281,332194
1282,332470
1283,332740
1284,332998
1285,333249
1286,333501
1287,333757
1288,334013
1289,334274
1290,334542
1291,334807
1292,335079
1293,335338
1294,335588
1295,335836
1296,336092
1297,336350
1298,336621
1299,336895
1300,337162
1301,337417
1302,337675
1303,337931
1304,338184
1305,338437
1306,338703
1307,338969
1308,339240
1309,339510
1310,339763
1311,340009
1312,340266
1313,340530
1314,340793
1315,341059
1316,341331
1317,341594
1318,341855
1319,342114
1320,342363
1321,342617
1322,342879
1323,343155
1324,343419
1325,343688
1326,343947
1327,344201
1328,344454
1329,344715
1330,344979
1331,345246
1332,345516
1333,345792
1334,346059
1335,346319
1336,346568
1337,346825
1338,347086
1339,347363
1340,347638
1341,347911
1342,348173
1343,348437
1344,348698
1345,348956
1346,349211
1347,349477
1348,349749
1349,350019
1350,350286
1351,350542
1352,350792
1353,351048
1354,351315
1355,351583
1356,351847
1357,352119
1358,352387
1359,352649
1360,352911
1361,353166
1362,353423
1363,353688
1364,353970
1365,354237
1366,354501
1367,354763
1368,355019
1369,355277
1370,355543
1371,355812
1372,356084
1373,356359
1374,356644
1375,356908
1376,357167
1377,357423
1378,357684
1379,357951
1380,358226
1381,358494
1382,358763
1383,359023
1384,359284
1385,359537
1386,359794
1387,360055
1388,360324
1389,360595
1390,360867
1391,361132
1392,361387
1393,361634
1394,361892
1395,362154
1396,362424
1397,362689
1398,362956
1399,363220
1400,363479
1401,363734
1402,363984
1403,364238
1404,364497
1405,364777
1406,365046
1407,365308
1408,365563
1409,365817
1410,366067
1411,366321
1412,366580
1413,366843
1414,367105
1415,367375
1416,367638
1417,367888
1418,368132
1419,368382
1420,368631
1421,368895
1422,369166
1423,369426
1424,369680
1425,369933
1426,370186
1427,370429
1428,370673
1429,370927
1430,371189
1431,371374
1432,371709
1433,371964
1434,372207
1435,372444
1436,372690
1437,372941
1438,373196
1439,373449
1440,373706
1441,373959
1442,374211
1443,374458
1444,374699
1445,374944
1446,375193
1447,375455
1448,375718
1449,375979
1450,376226
1451,376469
1452,376709
1453,376956
1454,377203
1455,377452
1456,377709
1457,377965
1458,378227
1459,378476
1460,378718
1461,378955
1462,379198
1463,379443
1464,379700
1465,379964
1466,380220
1467,380469
1468,380714
1469,380963
1470,381203
1471,381441
1472,381689
1473,381947
1474,382200
1475,382458
1476,382711
1477,382954
1478,383186
1479,383428
1480,383679
1481,383929
1482,384178
1483,384430
1484,384684
1485,384927
1486,385169
1487,385408
1488,385643
1489,385878
1490,386132
1491,386395
1492,386647
1493,386892
1494,387136
1495,387378
1496,387615
1497,387859
1498,388103
1499,388355
1500,388607
1501,388864
1502,389120
1503,389365
1504,389599
1505,389838
1506,390081
1507,390331
1508,390589
1509,390845
1510,391103
1511,391350
1512,391594
1513,391841
1514,392085
1515,392324
1516,392570
1517,392830
1518,393092
1519,393349
1520,393594
1521,393839
1522,394077
1523,394324
1524,394574
1525,394831
1526,395082
1527,395338
1528,395590
1529,395839
1530,396085
1531,396325
1532,396567
1533,396817
1534,397083
1535,397342
1536,397597
1537,397848
1538,398094
1539,398333
1540,398581
1541,398834
1542,399087
1543,399341
1544,399604
1545,399870
1546,400119
1547,400361
1548,400606
1549,400854
1550,401106
1551,401371
1552,401635
1553,401894
1554,402145
1555,402399
1556,402648
1557,402897
1558,403143
1559,403399
1560,403663
1561,403932
1562,404200
1563,404448
1564,404692
1565,404938
1566,405195
1567,405447
1568,405708
1569,405967
1570,406229
1571,406481
1572,406731
1573,406979
1574,407225
1575,407472
1576,407731
1577,408002
1578,408266
1579,408515
1580,408763
1581,409008
1582,409250
1583,409497
1584,409743
1585,410001
1586,410256
1587,410517
1588,410780
1589,411026
1590,411263
1591,411506
1592,411751
1593,412009
1594,412275
1595,412532
1596,412785
1597,413034
1598,413282
1599,413524
1600,413767
1601,414014
1602,414272
1603,414531
1604,414796
1605,415058
1606,415306
1607,415547
1608,415799
1609,416056
1610,416309
1611,416568
1612,416834
1613,417094
1614,417352
1615,417603
1616,417850
1617,418097
1618,418350
1619,418616
1620,418879
1621,419143
1622,419396
1623,419642
1624,419882
1625,420132
1626,420383
1627,420633
1628,420889
1629,421151
1630,421417
1631,421669
1632,421913
1633,422156
1634,422403
1635,422654
1636,422914
1637,423176
1638,423435
1639,423688
1640,423939
1641,424189
1642,424435
1643,424673
1644,424924
1645,425182
1646,425444
1647,425703
1648,425951
1649,426195
1650,426432
1651,426679
1652,426927
1653,427075
1654,427429
1655,427689
1656,427938
1657,428183
1658,428428
1659,428666
1660,428903
1661,429144
1662,429403
1663,429656
1664,429909
1665,430157
1666,430396
1667,430628
1668,430866
1669,431110
1670,431348
1671,431594
1672,431843
1673,432098
1674,432341
1675,432577
1676,432803
1677,433031
1678,433262
1679,433506
1680,434000
1681,434247
1682,434389
1683,434712
1684,434961
1685,435189
1686,435414
1687,435671
1688,435895
1689,436140
1690,436387
1691,436631
1692,436864
1693,437093
1694,437328
1695,437547
1696,437803
1697,438047
1698,438289
1699,438537
1700,438778
1701,439032
1702,439248
1703,439474
1704,439703
1705,439929
1706,440174
1707,440418
1708,440662
1709,440893
1710,441123
1711,441344
1712,441583
1713,441811
1714,442046
1715,442280
1716,442520
1717,442766
1718,443016
1719,443253
1720,443480
1721,443710
1722,443941
1723,444182
1724,444412
1725,444663
1726,444906
1727,445146
1728,445383
1729,445624
1730,445853
1731,446083
1732,446314
1733,446554
1734,446794
1735,447043
1736,447293
1737,447528
1738,447759
1739,447929
1740,448218
1741,448455
1742,448693
1743,448931
1744,449173
1745,449413
1746,449651
1747,449886
1748,450112
1749,450337
1750,450564
1751,450801
1752,451046
1753,451291
1754,451533
1755,451766
1756,451997
1757,452224
1758,452454
1759,452687
1760,452919
1761,453162
1762,453404
1763,453654
1764,453897
1765,454134
1766,454358
1767,454585
1768,454815
1769,455055
1770,455299
1771,455544
1772,455790
1773,456025
1774,456262
1775,456498
1776,456672
1777,456951
1778,457186
1779,457427
1780,457668
1781,457913
1782,458159
1783,458392
1784,458616
1785,458840
1786,459076
1787,459307
1788,459542
1789,459780
1790,460020
1791,460255
1792,460491
1793,460722
1794,460945
1795,461166
1796,461388
1797,461626
1798,461872
1799,462109
1800,462342
1801,462577
1802,462806
1803,463028
1804,463254
1805,463486
1806,463635
1807,463950
1808,464194
1809,464440
1810,464673
1811,464906
1812,465128
1813,465350
1814,465573
1815,465807
1816,466046
1817,466285
1818,466528
1819,466762
1820,466998
1821,467230
1822,467456
1823,467679
1824,467905
1825,468138
1826,468377
1827,468622
1828,468866
1829,469101
1830,469327
1831,469553
1832,469781
1833,470013
1834,470248
1835,470481
1836,470721
1837,470963
1838,471204
1839,471437
1840,471665
1841,471893
1842,472116
1843,472351
1844,472866
1845,473079
1846,473319
1847,473556
1848,473781
1849,474005
1850,474242
1851,474474
1852,474711
1853,474956
1854,475205
1855,475447
1856,475683
1857,475907
1858,476122
1859,476360
1860,476592
1861,476834
1862,477075
1863,477316
1864,477550
1865,477791
1866,478007
1867,478252
1868,478477
1869,478948
1870,479189
1871,479437
1872,479686
1873,479918
1874,480147
1875,480379
1876,480617
1877,480848
1878,481091
1879,481334
1880,481578
1881,481822
1882,482066
1883,482302
1884,482530
1885,482762
1886,482993
1887,483237
1888,483486
1889,483737
1890,483979
1891,484216
1892,484451
1893,484684
1894,484916
1895,485148
1896,485390
1897,485627
1898,485874
1899,486123
1900,486364
1901,486589
1902,486816
1903,487046
1904,487274
1905,487509
1906,487755
1907,487997
1908,488141
1909,488470
1910,488713
1911,488940
1912,489166
1913,489389
1914,489621
1915,489859
1916,490104
1917,490254
1918,490592
1919,490827
1920,491051
1921,491284
1922,491514
1923,491744
1924,491977
1925,492220
1926,492462
1927,492701
1928,492938
1929,493168
1930,493393
1931,493616
1932,493850
1933,494093
1934,494333
1935,494576
1936,494817
1937,495052
1938,495278
1939,495510
1940,495743
1941,495972
1942,496209
1943,496451
1944,496701
1945,496946
1946,497186
1947,497413
1948,497637
1949,497865
1950,498099
1951,498339
1952,498580
1953,498823
1954,499061
1955,499304
1956,499541
1957,499771
1958,499994
1959,500221
1960,500458
1961,500698
1962,500943
1963,501187
1964,501424
1965,501654
1966,501881
1967,502115
1968,502344
1969,502578
1970,502814
1971,503057
1972,503299
1973,503539
1974,503777
1975,504004
1976,504231
1977,504454
1978,504689
1979,504933
1980,505177
1981,505411
1982,505650
1983,505887
1984,506112
1985,506340
1986,506573
1987,506802
1988,507032
1989,507275
1990,507525
1991,507762
1992,507996
1993,508222
1994,508448
1995,508671
1996,508903
1997,509141
1998,509378
1999,509617
2000,509856
2001,510097
2002,510329
2003,510556
2004,510776
2005,511004
2006,511237
2007,511474
2008,511718
2009,511961
2010,512196
2011,512424
2012,512651
2013,512882
2014,513107
2015,513339
2016,513572
2017,513812
2018,514051
2019,514294
2020,514531
2021,514756
2022,514982
2023,515205
2024,515435
2025,515677
2026,515917
2027,516150
2028,516386
2029,516622
2030,516847
2031,517077
2032,517308
2033,517534
2034,517767
2035,518008
2036,518261
2037,518506
2038,518745
2039,518972
2040,519199
2041,519427
2042,519659
2043,519898
2044,520137
2045,520379
2046,520617
2047,520860
2048,521097
2049,521324
2050,521543
2051,521773
2052,522009
2053,522246
2054,522490
2055,522741
2056,522980
2057,523209
2058,523441
2059,523678
2060,523907
2061,524141
2062,524385
2063,524632
2064,524874
2065,525122
2066,525367
2067,525597
2068,525826
2069,525964
2070,526304
2071,526552
2072,526802
2073,527048
2074,527291
2075,527529
2076,527768
2077,528009
2078,528243
2079,528481
2080,528728
2081,528986
2082,529236
2083,529485
2084,529722
2085,529958
2086,530192
2087,530434
2088,530682
2089,530929
2090,531180
2091,531430
2092,531682
2093,531923
2094,532162
2095,532394
2096,532633
2097,532874
2098,533128
2099,533386
2100,533636
2101,533881
2102,534118
2103,534361
2104,534599
2105,534839
2106,535080
2107,535331
2108,535581
2109,535834
2110,536085
2111,536323
2112,536556
2113,536791
2114,537041
2115,537288
2116,537539
2117,537789
2118,538040
2119,538281
2120,538520
2121,538762
2122,538995
2123,539231
2124,539478
2125,539739
2126,539988
2127,540234
2128,540475
2129,540710
2130,540939
2131,541176
2132,541422
2133,541664
2134,541912
2135,542161
2136,542415
2137,542654
2138,542893
2139,543125
2140,543356
2141,543594
2142,543845
2143,544102
2144,544348
2145,544595
2146,544834
2147,545073
2148,545310
2149,545549
2150,545787
2151,546033
2152,546285
2153,546541
2154,546791
2155,547026
2156,547262
2157,547495
2158,547735
2159,547979
2160,548230
2161,548475
2162,548723
2163,548967
2164,549209
2165,549447
2166,549680
2167,549917
2168,550159
2169,550413
2170,550670
2171,550922
2172,551163
2173,551402
2174,551638
2175,551877
2176,552120
2177,552366
2178,552616
2179,552864
2180,553120
2181,553369
2182,553608
2183,553838
2184,554076
2185,554315
2186,554564
2187,554822
2188,555073
2189,555320
2190,555561
2191,555806
2192,556045
2193,556281
2194,556517
2195,556762
2196,557012
2197,557266
2198,557518
2199,557757
2200,557991
2201,558224
2202,558467
2203,558710
2204,558958
2205,559205
2206,559454
2207,559699
2208,559943
2209,560182
2210,560412
2211,560648
2212,560886
2213,561136
2214,561392
2215,561645
2216,561888
2217,562125
2218,562360
2219,562597
2220,562837
2221,563077
2222,563324
2223,563572
2224,563822
2225,564073
2226,564313
2227,564540
2228,564770
2229,565009
2230,565257
2231,565509
2232,565762
2233,566018
2234,566261
2235,566508
2236,566751
2237,566990
2238,567225
2239,567473
2240,567728
2241,567986
2242,568243
2243,568490
2244,568645
2245,568965
2246,569215
2247,569462
2248,569714
2249,569969
2250,570227
2251,570478
2252,570728
2253,570974
2254,571213
2255,571449
2256,571690
2257,571951
2258,572206
2259,572460
2260,572707
2261,572951
2262,573185
2263,573428
2264,573676
2265,573919
2266,574169
2267,574428
2268,574692
2269,574940
2270,575180
2271,575421
2272,575662
2273,575905
2274,576161
2275,576421
2276,576678
2277,576929
2278,577182
2279,577429
2280,577670
2281,577906
2282,578151
2283,578406
2284,578666
2285,578925
2286,579176
2287,579425
2288,579661
2289,579799
2290,580150
2291,580403
2292,580655
2293,580910
2294,581167
2295,581421
2296,581668
2297,581909
2298,582150
2299,582390
2300,582646
2301,582906
2302,583162
2303,583413
2304,583659
2305,583899
2306,584139
2307,584384
2308,584626
2309,584874
2310,585128
2311,585392
2312,585641
2313,585882
2314,586118
2315,586358
2316,586594
2317,586841
2318,587101
2319,587355
2320,587604
2321,587853
2322,588103
2323,588340
2324,588577
2325,588818
2326,589067
2327,589317
2328,589578
2329,589836
2330,590082
2331,590320
2332,590562
2333,590810
2334,591054
2335,591303
2336,591559
2337,591815
2338,592065
2339,592316
2340,592556
2341,592792
2342,593028
2343,593277
2344,593533
2345,593784
2346,594032
2347,594278
2348,594524
2349,594760
2350,594999
2351,595482
2352,595730
2353,595988
2354,596246
2355,596496
2356,596730
2357,596964
2358,597205
2359,597446
2360,597693
2361,597948
2362,598204
2363,598450
2364,598700
2365,598946
2366,599184
2367,599416
2368,599655
2369,599902
2370,600157
2371,600410
2372,600663
2373,600909
2374,601141
2375,601383
2376,601627
2377,601870
2378,602112
2379,602363
2380,602616
2381,602867
2382,603113
2383,603349
2384,603584
2385,603816
2386,604064
2387,604318
2388,604571
2389,604818
2390,605068
2391,605308
2392,605548
2393,605791
2394,606025
2395,606265
2396,606514
2397,606769
2398,607020
2399,607271
2400,607504
2401,607738
2402,607967
2403,608206
2404,608448
2405,608692
2406,608858
2407,609187
2408,609438
2409,609680
2410,609915
2411,610144
2412,610377
2413,610617
2414,610863
2415,611116
2416,611361
2417,611603
2418,611834
2419,612067
2420,612305
2421,612541
2422,612772
2423,613016
2424,613266
2425,613513
2426,613757
2427,613994
2428,614226
2429,614455
2430,614691
2431,614939
2432,615184
2433,615429
2434,615672
2435,615916
2436,616148
2437,616379
2438,616612
2439,616844
2440,617079
2441,617320
2442,617522
2443,617821
2444,618060
2445,618290
2446,618520
2447,618742
2448,618976
2449,619135
2450,619463
2451,619711
2452,619955
2453,620207
2454,620449
2455,620684
2456,620915
2457,621153
2458,621394
2459,621648
2460,621909
2461,622159
2462,622404
2463,622645
2464,622890
2465,623127
2466,623368
2467,623613
2468,623867
2469,624120
2470,624379
2471,624633
2472,624870
2473,625107
2474,625347
2475,625596
2476,625845
2477,626103
2478,626356
2479,626607
2480,626853
2481,627098
2482,627342
2483,627581
2484,627824
2485,628078
2486,628345
2487,628602
2488,628854
2489,629097
2490,629340
2491,629581
2492,629824
2493,630075
2494,630330
2495,630582
2496,630838
2497,631098
2498,631339
2499,631573
2500,631813
2501,632060
2502,632314
2503,632573
2504,632833
2505,633089
2506,633335
2507,633584
2508,633831
2509,634074
2510,634317
2511,634571
2512,634832
2513,635091
2514,635351
2515,635596
2516,635837
2517,636079
2518,636332
2519,636586
2520,636845
2521,637104
2522,637363
2523,637611
2524,637859
2525,638108
2526,638350
2527,638593
2528,638851
2529,639118
2530,639374
2531,639625
2532,639873
2533,640117
2534,640358
2535,640606
2536,640856
2537,641112
2538,641370
2539,641635
2540,641889
2541,642137
2542,642376
2543,642617
2544,642862
2545,643121
2546,643388
2547,643644
2548,643899
2549,644151
2550,644403
2551,644648
2552,644894
2553,645144
2554,645406
2555,645668
2556,645935
2557,646193
2558,646445
2559,646687
2560,646936
2561,647192
2562,647450
2563,647705
2564,647968
2565,648226
2566,648483
2567,648733
2568,648977
2569,649221
2570,649471
2571,649740
