,R
0,282
1,561
2,837
3,1104
4,1369
5,1639
6,1909
7,2180
8,2447
9,2718
10,2987
11,3255
12,3529
13,3796
14,4067
15,4344
16,4614
17,4886
18,5164
19,5434
20,5706
21,5977
22,6254
23,6532
24,6802
25,7085
26,7360
27,7633
28,7910
29,8183
30,8457
31,8738
32,9010
33,9283
34,9561
35,9831
36,10101
37,10372
38,10643
39,10918
40,11188
41,11460
42,11734
43,12012
44,12283
45,12551
46,12825
47,13112
48,13387
49,13666
50,13950
51,14221
52,14497
53,14772
54,15045
55,15319
56,15590
57,15863
58,16137
59,16415
60,16686
61,16953
62,17229
63,17512
64,17789
65,18069
66,18351
67,18632
68,18913
69,19188
70,19469
71,19753
72,20026
73,20305
74,20588
75,20865
76,21145
77,21421
78,21699
79,21984
80,22263
81,22549
82,22825
83,23097
84,23379
85,23654
86,23930
87,24207
88,24481
89,24762
90,25043
91,25311
92,25591
93,25867
94,26150
95,26423
96,26697
97,26981
98,27254
99,27527
100,27802
101,28075
102,28355
103,28625
104,28895
105,29174
106,29446
107,29714
108,29987
109,30258
110,30538
111,30813
112,31084
113,31365
114,31643
115,31912
116,32186
117,32458
118,32738
119,33008
120,33281
121,33566
122,33843
123,34119
124,34397
125,34676
126,34958
127,35132
128,35516
129,35793
130,35967
131,36343
132,36617
133,36888
134,37168
135,37440
136,37719
137,37994
138,38265
139,38540
140,38813
141,39089
142,39368
143,39644
144,39925
145,40202
146,40481
147,40758
148,41032
149,41312
150,41593
151,41868
152,42145
153,42422
154,42693
155,42967
156,43241
157,43518
158,43802
159,44078
160,44359
161,44637
162,44910
163,45187
164,45461
165,45739
166,46019
167,46294
168,46579
169,46858
170,47134
171,47413
172,47690
173,47970
174,48251
175,48527
176,48802
177,49080
178,49352
179,49624
180,49898
181,50171
182,50444
183,50714
184,50997
185,51268
186,51535
187,51816
188,52083
189,52364
190,52643
191,52914
192,53197
193,53474
194,53644
195,54014
196,54288
197,54559
198,54831
199,55102
200,55378
201,55648
202,55916
203,56183
204,56463
205,56740
206,56930
207,57281
208,57559
209,57831
210,58094
211,58361
212,58629
213,58897
214,59162
215,59432
216,59707
217,59972
218,60239
219,60514
220,60780
221,61057
222,61331
223,61597
224,61875
225,62143
226,62408
227,62679
228,62948
229,63214
230,63485
231,63756
232,64031
233,64302
234,64567
235,64842
236,65111
237,65388
238,65660
239,65930
240,66210
241,66480
242,66748
243,67018
244,67288
245,67560
246,67833
247,68103
248,68381
249,68651
250,68916
251,69193
252,69461
253,69737
254,70010
255,70279
256,70558
257,70829
258,71098
259,71369
260,71637
261,71907
262,72181
263,72449
264,72718
265,72989
266,73258
267,73528
268,73791
269,74064
270,74339
271,74602
272,74774
273,75145
274,75417
275,75682
276,75950
277,76214
278,76487
279,76754
280,77017
281,77293
282,77560
283,77824
284,78090
285,78360
286,78630
287,78897
288,79163
289,79438
290,79704
291,79966
292,80238
293,80503
294,80768
295,81039
296,81304
297,81574
298,81844
299,82110
300,82377
301,82646
302,82913
303,83183
304,83448
305,83720
306,83989
307,84256
308,84523
309,84784
310,85052
311,85326
312,85592
313,85859
314,86133
315,86403
316,86669
317,86940
318,87209
319,87485
320,87753
321,88026
322,88301
323,88574
324,88845
325,89110
326,89384
327,89661
328,89932
329,90205
330,90482
331,90757
332,91031
333,91305
334,91579
335,91857
336,92129
337,92405
338,92679
339,92946
340,93220
341,93483
342,93750
343,94025
344,94290
345,94566
346,94753
347,95105
348,95381
349,95553
350,95920
351,96109
352,96469
353,96737
354,97009
355,97272
356,97542
357,97802
358,98070
359,98344
360,98610
361,98878
362,99151
363,99423
364,99699
365,99973
366,100251
367,100535
368,100815
369,101092
370,101376
371,101656
372,101932
373,102204
374,102483
375,102765
376,103037
377,103317
378,103596
379,103873
380,104152
381,104329
382,104693
383,104970
384,105238
385,105407
386,105773
387,106040
388,106300
389,106563
390,106822
391,107093
392,107356
393,107624
394,107905
395,108184
396,108462
397,108743
398,109023
399,109312
400,109589
401,109866
402,110153
403,110431
404,110699
405,110976
406,111249
407,111530
408,111805
409,112079
410,112361
411,112639
412,112913
413,113185
414,113457
415,113735
416,114003
417,114273
418,114547
419,114820
420,115084
421,115355
422,115632
423,115910
424,116183
425,116458
426,116737
427,117008
428,117283
429,117550
430,117816
431,118093
432,118357
433,118620
434,118894
435,119161
436,119423
437,119689
438,119954
439,120227
440,120494
441,120758
442,121030
443,121302
444,121570
445,121836
446,122105
447,122381
448,122645
449,122911
450,123185
451,123453
452,123714
453,123981
454,124249
455,124520
456,124787
457,125052
458,125328
459,125598
460,125781
461,126132
462,126399
463,126672
464,126935
465,127199
466,127472
467,127739
468,128002
469,128276
470,128546
471,128819
472,129093
473,129363
474,129639
475,129911
476,130180
477,130453
478,130721
479,130997
480,131273
481,131543
482,131820
483,132021
484,132355
485,132629
486,132898
487,133170
488,133441
489,133708
490,133985
491,134257
492,134525
493,134698
494,135063
495,135336
496,135609
497,135877
498,136148
499,136420
500,136688
501,136962
502,137226
503,137493
504,137771
505,138035
506,138303
507,138577
508,138849
509,139108
510,139375
511,139641
512,139912
513,140177
514,140442
515,140715
516,140895
517,141247
518,141517
519,141786
520,142061
521,142329
522,142598
523,142880
524,143153
525,143420
526,143693
527,143963
528,144238
529,144509
530,144776
531,145053
532,145317
533,145578
534,145845
535,146109
536,146377
537,146644
538,146907
539,147178
540,147447
541,147706
542,147979
543,148244
544,148514
545,148791
546,148981
547,149333
548,149604
549,149874
550,150063
551,150407
552,150680
553,150950
554,151217
555,151493
556,151766
557,152031
558,152303
559,152569
560,152748
561,153107
562,153374
563,153643
564,153822
565,154166
566,154433
567,154693
568,154955
569,155226
570,155488
571,155762
572,156041
573,156312
574,156504
575,156854
576,157120
577,157394
578,157660
579,157922
580,158189
581,158455
582,158715
583,158976
584,159239
585,159509
586,159766
587,160031
588,160304
589,160568
590,160828
591,161093
592,161353
593,161617
594,161883
595,162140
596,162409
597,162672
598,162932
599,163198
600,163464
601,163734
602,164002
603,164269
604,164541
605,164810
606,164994
607,165338
608,165600
609,165859
610,166127
611,166383
612,166640
613,166907
614,167169
615,167425
616,167689
617,167950
618,168133
619,168479
620,168744
621,169014
622,169276
623,169534
624,169740
625,170058
626,170319
627,170588
628,170840
629,171100
630,171366
631,171625
632,171883
633,172145
634,172408
635,172674
636,172939
637,173204
638,173392
639,173742
640,174004
641,174268
642,174528
643,174797
644,175060
645,175320
646,175588
647,175853
648,176113
649,176381
650,176559
651,176907
652,177179
653,177442
654,177711
655,177977
656,178243
657,178507
658,178702
659,179034
660,179306
661,179565
662,179827
663,180097
664,180357
665,180622
666,180886
667,181147
668,181336
669,181686
670,181952
671,182224
672,182496
673,182760
674,183029
675,183302
676,183485
677,183852
678,184124
679,184408
680,184593
681,184950
682,185223
683,185493
684,185768
685,186040
686,186312
687,186585
688,186859
689,187122
690,187388
691,187658
692,187931
693,188193
694,188456
695,188730
696,188996
697,189260
698,189527
699,189791
700,190064
701,190332
702,190510
703,190870
704,191139
705,191398
706,191662
707,191923
708,192195
709,192456
710,192717
711,192990
712,193255
713,193513
714,193783
715,194048
716,194311
717,194585
718,194850
719,195118
720,195388
721,195655
722,195847
723,196182
724,196454
725,196718
726,196982
727,197245
728,197513
729,197779
730,198043
731,198307
732,198569
733,198842
734,199108
735,199374
736,199557
737,199914
738,200175
739,200443
740,200707
741,200972
742,201235
743,201498
744,201768
745,202032
746,202298
747,202570
748,202836
749,203109
750,203384
751,203655
752,203836
753,204207
754,204480
755,204757
756,205030
757,205303
758,205485
759,205853
760,206137
761,206349
762,206688
763,206965
764,207237
765,207513
766,207791
767,208065
768,208350
769,208526
770,208898
771,209179
772,209456
773,209636
774,210004
775,210278
776,210555
777,210744
778,211094
779,211364
780,211633
781,211909
782,212175
783,212439
784,212716
785,212977
786,213236
787,213418
788,213764
789,214029
790,214293
791,214553
792,214822
793,215086
794,215344
795,215526
796,215870
797,216140
798,216407
799,216672
800,216942
801,217212
802,217479
803,217660
804,218031
805,218313
806,218527
807,218661
808,219051
809,219340
810,219623
811,219806
812,220176
813,220465
814,220751
815,220932
816,221315
817,221594
818,221865
819,222042
820,222413
821,222687
822,222962
823,223236
824,223521
825,223801
826,224080
827,224370
828,224653
829,224947
830,225232
831,225517
832,225809
833,226089
834,226365
835,226646
836,226913
837,227192
838,227460
839,227723
840,228000
841,228269
842,228532
843,228802
844,229074
845,229265
846,229621
847,229890
848,230167
849,230437
850,230699
851,230970
852,231235
853,231514
854,231789
855,232060
856,232347
857,232525
858,232901
859,233182
860,233465
861,233651
862,234026
863,234307
864,234592
865,234873
866,235146
867,235427
868,235707
869,236000
870,236278
871,236564
872,236857
873,237140
874,237420
875,237700
876,237976
877,238260
878,238538
879,238814
880,239090
881,239272
882,239638
883,239910
884,240186
885,240461
886,240731
887,241013
888,241285
889,241557
890,241835
891,242111
892,242391
893,242670
894,242850
895,243223
896,243497
897,243768
898,244043
899,244309
900,244490
901,244850
902,245117
903,245391
904,245659
905,245921
906,246192
907,246462
908,246736
909,247013
910,247287
911,247563
912,247842
913,248113
914,248387
915,248662
916,248841
917,249208
918,249482
919,249765
920,250035
921,250303
922,250580
923,250853
924,251137
925,251412
926,251589
927,251959
928,252235
929,252499
930,252771
931,253040
932,253313
933,253586
934,253857
935,254141
936,254419
937,254693
938,254975
939,255257
940,255549
941,255828
942,256110
943,256400
944,256683
945,256964
946,257243
947,257524
948,257809
949,258088
950,258372
951,258652
952,258933
953,259212
954,259487
955,259664
956,260049
957,260324
958,260601
959,260882
960,261156
961,261334
962,261705
963,261978
964,262260
965,262534
966,262812
967,262990
968,263364
969,263645
970,263920
971,264106
972,264479
973,264756
974,265041
975,265318
976,265592
977,265875
978,266159
979,266445
980,266737
981,267028
982,267321
983,267612
984,267904
985,268188
986,268477
987,268771
988,269050
989,269334
990,269623
991,269899
992,270182
993,270463
994,270745
995,271029
996,271311
997,271600
998,271883
999,272166
1000,272451
1001,272739
1002,273033
1003,273240
1004,273593
1005,273885
1006,274166
1007,274441
1008,274719
1009,274999
1010,275283
1011,275564
1012,275852
1013,276134
1014,276413
1015,276702
1016,276983
1017,277274
1018,277556
1019,277831
1020,278124
1021,278407
1022,278680
1023,278961
1024,279241
1025,279527
1026,279804
1027,280084
1028,280364
1029,280643
1030,280920
1031,281190
1032,281471
1033,281753
1034,282022
1035,282192
1036,282573
1037,282842
1038,283118
1039,283388
1040,283655
1041,283930
1042,284204
1043,284473
1044,284748
1045,285022
1046,285297
1047,285570
1048,285851
1049,286132
1050,286406
1051,286691
1052,286969
1053,287145
1054,287522
1055,287796
1056,288069
1057,288351
1058,288629
1059,288905
1060,289190
1061,289470
1062,289748
1063,290032
1064,290317
1065,290599
1066,290878
1067,291167
1068,291449
1069,291724
1070,292009
1071,292287
1072,292567
1073,292850
1074,293131
1075,293420
1076,293703
1077,293982
1078,294268
1079,294552
1080,294840
1081,295120
1082,295400
1083,295687
1084,295970
1085,296244
1086,296520
1087,296797
1088,297082
1089,297357
1090,297636
1091,297918
1092,298199
1093,298480
1094,298760
1095,298940
1096,299280
1097,299568
1098,299754
1099,300132
1100,300409
1101,300689
1102,300963
1103,301242
1104,301525
1105,301802
1106,302092
1107,302281
1108,302646
1109,302933
1110,303212
1111,303497
1112,303775
1113,304054
1114,304338
1115,304621
1116,304899
1117,305175
1118,305457
1119,305742
1120,306021
1121,306308
1122,306596
1123,306874
1124,307162
1125,307449
1126,307733
1127,308017
1128,308300
1129,308585
1130,308868
1131,309143
1132,309418
1133,309695
1134,309979
1135,310253
1136,310525
1137,310810
1138,311084
1139,311355
1140,311633
1141,311905
1142,312184
1143,312455
1144,312728
1145,313003
1146,313276
1147,313546
1148,313812
1149,314082
1150,314359
1151,314628
1152,314894
1153,315174
1154,315448
1155,315716
1156,315994
1157,316272
1158,316554
1159,316830
1160,317107
1161,317389
1162,317668
1163,317945
1164,318219
1165,318497
1166,318784
1167,319059
1168,319339
1169,319624
1170,319904
1171,320183
1172,320463
1173,320743
1174,321027
1175,321306
1176,321587
1177,321871
1178,322147
1179,322425
1180,322698
1181,322977
1182,323255
1183,323526
1184,323804
1185,324078
1186,324352
1187,324630
1188,324903
1189,325181
1190,325458
1191,325731
1192,326010
1193,326288
1194,326558
1195,326829
1196,327104
1197,327381
1198,327658
1199,327932
1200,328216
1201,328493
1202,328766
1203,329051
1204,329326
1205,329606
1206,329886
1207,330158
1208,330448
1209,330728
1210,331004
1211,331283
1212,331563
1213,331846
1214,332121
1215,332402
1216,332685
1217,332966
1218,333249
1219,333522
1220,333802
1221,334080
1222,334352
1223,334629
1224,334906
1225,335176
1226,335449
1227,335725
1228,336000
1229,336278
1230,336554
1231,336841
1232,337123
1233,337398
1234,337689
1235,337968
1236,338254
1237,338535
1238,338810
1239,339096
1240,339377
1241,339648
1242,339923
1243,340202
1244,340482
1245,340755
1246,341035
1247,341312
1248,341588
1249,341763
1250,342130
1251,342407
1252,342684
1253,342952
1254,343221
1255,343496
1256,343764
1257,343942
1258,344291
1259,344558
1260,344830
1261,345094
1262,345361
1263,345630
1264,345902
1265,346172
1266,346441
1267,346712
1268,346992
1269,347264
1270,347534
1271,347817
1272,348086
1273,348352
1274,348626
1275,348901
1276,349180
1277,349454
1278,349729
1279,350010
1280,350288
1281,350562
1282,350836
1283,351109
1284,351386
1285,351656
1286,351924
1287,352204
1288,352470
1289,352646
1290,353001
1291,353268
1292,353539
1293,353805
1294,354071
1295,354347
1296,354618
1297,354885
1298,355154
1299,355424
1300,355696
1301,355965
1302,356229
1303,356507
1304,356774
1305,357035
1306,357309
1307,357488
1308,357846
1309,358121
1310,358390
1311,358666
1312,358937
1313,359205
1314,359476
1315,359743
1316,360015
1317,360251
1318,360550
1319,360826
1320,361094
1321,361356
1322,361630
1323,361897
1324,362171
1325,362443
1326,362712
1327,362990
1328,363265
1329,363530
1330,363803
1331,364075
1332,364350
1333,364619
1334,364886
1335,365163
1336,365429
1337,365690
1338,365964
1339,366225
1340,366498
1341,366770
1342,367038
1343,367318
1344,367589
1345,367857
1346,368131
1347,368402
1348,368676
1349,368942
1350,369211
1351,369489
1352,369760
1353,370019
1354,370293
1355,370562
1356,370839
1357,371107
1358,371373
1359,371652
1360,371926
1361,372191
1362,372467
1363,372737
1364,373011
1365,373282
1366,373549
1367,373830
1368,374098
1369,374269
1370,374636
1371,374905
1372,375176
1373,375444
1374,375710
1375,375987
1376,376259
1377,376523
1378,376797
1379,377071
1380,377343
1381,377526
1382,377885
1383,378164
1384,378428
1385,378690
1386,378964
1387,379228
1388,379498
1389,379771
1390,380038
1391,380310
1392,380583
1393,380853
1394,381122
1395,381304
1396,381661
1397,381935
1398,382201
1399,382470
1400,382737
1401,383003
1402,383274
1403,383533
1404,383802
1405,384078
1406,384344
1407,384614
1408,384895
1409,385074
1410,385439
1411,385714
1412,385984
1413,386261
1414,386528
1415,386797
1416,387070
1417,387336
1418,387601
1419,387864
1420,388134
1421,388410
1422,388677
1423,388853
1424,389222
1425,389497
1426,389762
1427,390032
1428,390298
1429,390567
1430,390835
1431,391100
1432,391374
1433,391643
1434,391910
1435,392180
1436,392449
1437,392633
1438,392994
1439,393264
1440,393540
1441,393813
1442,394079
1443,394346
1444,394617
1445,394894
1446,395163
1447,395434
1448,395712
1449,395985
1450,396254
1451,396525
1452,396796
1453,397075
1454,397339
1455,397609
1456,397887
1457,398161
1458,398431
1459,398611
1460,398966
1461,399244
1462,399513
1463,399780
1464,400048
1465,400313
1466,400580
1467,400842
1468,401107
1469,401378
1470,401639
1471,401905
1472,402176
1473,402445
1474,402708
1475,402975
1476,403241
1477,403517
1478,403788
1479,404059
1480,404336
1481,404610
1482,404884
1483,405056
1484,405429
1485,405709
1486,405977
1487,406250
1488,406529
1489,406806
1490,407077
1491,407254
1492,407614
1493,407895
1494,408166
1495,408431
1496,408706
1497,408977
1498,409238
1499,409504
1500,409775
1501,409955
1502,410313
1503,410581
1504,410858
1505,411128
1506,411395
1507,411669
1508,411937
1509,412117
1510,412482
1511,412749
1512,413025
1513,413295
1514,413559
1515,413827
1516,414093
1517,414363
1518,414633
1519,414902
1520,415178
1521,415449
1522,415716
1523,415992
1524,416262
1525,416538
1526,416815
1527,417084
1528,417364
1529,417635
1530,417901
1531,418173
1532,418442
1533,418715
1534,418987
1535,419257
1536,419533
1537,419711
1538,420067
1539,420341
1540,420607
1541,420881
1542,421153
1543,421415
1544,421688
1545,421956
1546,422215
1547,422484
1548,422751
1549,423020
1550,423286
1551,423551
1552,423828
1553,424096
1554,424361
1555,424635
1556,424901
1557,425081
1558,425443
1559,425708
1560,425978
1561,426243
1562,426503
1563,426770
1564,427038
1565,427308
1566,427580
1567,427850
1568,428130
1569,428403
1570,428673
1571,428952
1572,429222
1573,429506
1574,429783
1575,429955
1576,430331
1577,430606
1578,430873
1579,431147
1580,431415
1581,431691
1582,431958
1583,432226
1584,432502
1585,432775
1586,433042
1587,433314
1588,433585
1589,433763
1590,434130
1591,434397
1592,434676
1593,434946
1594,435205
1595,435474
1596,435740
1597,436011
1598,436277
1599,436546
1600,436822
1601,437002
1602,437357
1603,437627
1604,437892
1605,438166
1606,438435
1607,438697
1608,438974
1609,439240
1610,439504
1611,439775
1612,440043
1613,440311
1614,440583
1615,440849
1616,441119
1617,441388
1618,441656
1619,441924
1620,442184
1621,442452
1622,442725
1623,442986
1624,443251
1625,443520
1626,443785
1627,444048
1628,444314
1629,444576
1630,444846
1631,445110
1632,445376
1633,445650
1634,445921
1635,446184
1636,446447
1637,446713
1638,446981
1639,447244
1640,447505
1641,447778
1642,448040
1643,448297
1644,448566
1645,448827
1646,449094
1647,449361
1648,449627
1649,449898
1650,450165
1651,450426
1652,450692
1653,450955
1654,451218
1655,451484
1656,451743
1657,452010
1658,452270
1659,452531
1660,452795
1661,453053
1662,453315
1663,453584
1664,453848
1665,454021
1666,454379
1667,454648
1668,454910
1669,455170
1670,455434
1671,455700
1672,455959
1673,456220
1674,456484
1675,456746
1676,457005
1677,457269
1678,457528
1679,457706
1680,458058
1681,458322
1682,458592
1683,458858
1684,459118
1685,459380
1686,459642
1687,459910
1688,460172
1689,460432
1690,460706
1691,460882
1692,461227
1693,461498
1694,461761
1695,462028
1696,462292
1697,462557
1698,462829
1699,463006
1700,463352
1701,463620
1702,463882
1703,464145
1704,464409
1705,464668
1706,464935
1707,465195
1708,465457
1709,465630
1710,465982
1711,466247
1712,466513
1713,466777
1714,467039
1715,467309
1716,467577
1717,467838
1718,468099
1719,468363
1720,468631
1721,468891
1722,469149
1723,469417
1724,469679
1725,469937
1726,470206
1727,470468
1728,470736
1729,471006
1730,471269
1731,471541
1732,471809
1733,472071
1734,472334
1735,472508
1736,472860
1737,473133
1738,473392
1739,473659
1740,473924
1741,474190
1742,474460
1743,474722
1744,474990
1745,475260
1746,475526
1747,475791
1748,476067
1749,476336
1750,476597
1751,476865
1752,477134
1753,477406
1754,477673
1755,477940
1756,478211
1757,478386
1758,478744
1759,479010
1760,479277
1761,479547
1762,479812
1763,480077
1764,480355
1765,480623
1766,480884
1767,481154
1768,481424
1769,481697
1770,481963
1771,482144
1772,482498
1773,482769
1774,483030
1775,483299
1776,483565
1777,483839
1778,484108
1779,484371
1780,484650
1781,484918
1782,485179
1783,485450
1784,485722
1785,485904
1786,486260
1787,486526
1788,486797
1789,487065
1790,487328
1791,487592
1792,487855
1793,488126
1794,488388
1795,488586
1796,488923
1797,489191
1798,489452
1799,489720
1800,489988
1801,490260
1802,490524
1803,490787
1804,491057
1805,491321
1806,491580
1807,491850
1808,492109
1809,492377
1810,492644
1811,492908
1812,493185
1813,493452
1814,493714
1815,493985
1816,494251
1817,494430
1818,494786
1819,495054
1820,495325
1821,495586
1822,495846
1823,496118
1824,496377
1825,496646
1826,496918
1827,497181
1828,497451
1829,497630
1830,497985
1831,498252
1832,498519
1833,498779
1834,499052
1835,499311
1836,499573
1837,499838
1838,500101
1839,500365
1840,500625
1841,500886
1842,501156
1843,501421
1844,501686
1845,501967
1846,502231
1847,502494
1848,502770
1849,503034
1850,503304
1851,503573
1852,503841
1853,504112
1854,504382
1855,504649
1856,504918
1857,505187
1858,505459
1859,505723
1860,505996
1861,506274
1862,506540
1863,506802
1864,507073
1865,507338
1866,507603
1867,507870
1868,508133
1869,508396
1870,508660
1871,508921
1872,509183
1873,509441
1874,509704
1875,509974
1876,510239
1877,510513
1878,510788
1879,511063
1880,511337
1881,511512
1882,511878
1883,512156
1884,512419
1885,512682
1886,512954
1887,513221
1888,513488
1889,513750
1890,514020
1891,514292
1892,514556
1893,514826
1894,515097
1895,515365
1896,515633
1897,515899
1898,516167
1899,516441
1900,516706
1901,516876
1902,517241
1903,517513
1904,517781
1905,518045
1906,518314
1907,518587
1908,518854
1909,519129
1910,519401
1911,519666
1912,519935
1913,520198
1914,520460
1915,520725
1916,520980
1917,521235
1918,521498
1919,521762
1920,522020
1921,522194
1922,522538
1923,522807
1924,523067
1925,523326
1926,523596
1927,523854
1928,524104
1929,524362
1930,524616
1931,524874
1932,525130
1933,525386
1934,525646
1935,525903
1936,526161
1937,526424
1938,526678
1939,526943
1940,527209
1941,527469
1942,527737
1943,527927
1944,528263
1945,528524
1946,528781
1947,529039
1948,529301
1949,529557
1950,529813
1951,530077
1952,530337
1953,530593
1954,530854
1955,531114
1956,531380
1957,531641
1958,531905
1959,532173
1960,532436
1961,532701
1962,532965
1963,533223
1964,533483
1965,533753
1966,534011
1967,534267
1968,534534
1969,534797
1970,535055
1971,535313
1972,535575
1973,535839
1974,536097
1975,536357
1976,536626
1977,536885
1978,537142
1979,537407
1980,537667
1981,537931
1982,538189
1983,538446
1984,538706
1985,538964
1986,539222
1987,539481
1988,539739
1989,540004
1990,540273
1991,540539
1992,540812
1993,541086
1994,541361
1995,541629
1996,541895
1997,542088
1998,542435
1999,542692
2000,542948
2001,543216
2002,543481
2003,543740
2004,544000
2005,544264
2006,544531
2007,544794
2008,545057
2009,545324
2010,545590
2011,545849
2012,546115
2013,546379
2014,546649
2015,546911
2016,547170
2017,547444
2018,547709
2019,547965
2020,548226
2021,548490
2022,548755
2023,549022
2024,549285
2025,549558
2026,549824
2027,550082
2028,550349
2029,550535
2030,550879
2031,551146
2032,551405
2033,551676
2034,551946
2035,552205
2036,552475
2037,552648
2038,553025
2039,553298
2040,553569
2041,553849
2042,554118
2043,554384
2044,554658
2045,554925
2046,555197
2047,555459
2048,555721
2049,555989
2050,556252
2051,556506
2052,556770
2053,557031
2054,557295
2055,557557
2056,557819
2057,558082
2058,558340
2059,558527
2060,558671
2061,559042
2062,559304
2063,559572
2064,559828
2065,560084
2066,560350
2067,560609
2068,560864
2069,561128
2070,561391
2071,561655
2072,561925
2073,562192
2074,562464
2075,562727
2076,562994
2077,563259
2078,563518
2079,563782
2080,563967
2081,564309
2082,564571
2083,564840
2084,565103
2085,565364
2086,565627
2087,565888
2088,566149
2089,566412
2090,566607
2091,566934
2092,567197
2093,567448
2094,567710
2095,567969
2096,568234
2097,568495
2098,568756
2099,569024
2100,569294
2101,569557
2102,569826
2103,570096
2104,570361
2105,570635
2106,570903
2107,571172
2108,571440
2109,571702
2110,571967
2111,572227
2112,572494
2113,572758
2114,573017
2115,573281
2116,573548
2117,573808
2118,574070
2119,574333
2120,574508
2121,574863
2122,575124
2123,575384
2124,575651
2125,575913
2126,576170
2127,576427
2128,576686
2129,576952
2130,577206
2131,577463
2132,577733
2133,577993
2134,578249
2135,578514
2136,578778
2137,579041
2138,579307
2139,579572
2140,579847
2141,580115
2142,580375
2143,580641
2144,580903
2145,581174
2146,581430
2147,581684
2148,581952
2149,582213
2150,582466
2151,582731
2152,582993
2153,583255
2154,583521
2155,583696
2156,584049
2157,584311
2158,584563
2159,584820
2160,585073
2161,585331
2162,585594
2163,585845
2164,586100
2165,586365
2166,586623
2167,586875
2168,587134
2169,587395
2170,587657
2171,587919
2172,588177
2173,588443
2174,588703
2175,588955
2176,589212
2177,589470
2178,589728
2179,589989
2180,590241
2181,590495
2182,590754
2183,591005
2184,591257
2185,591508
2186,591757
2187,592012
2188,592268
2189,592515
2190,592773
2191,593025
2192,593276
2193,593528
2194,593779
2195,594035
2196,594294
2197,594543
2198,594796
2199,595059
2200,595313
2201,595567
2202,595824
2203,596080
2204,596339
2205,596600
2206,596858
2207,597120
2208,597381
2209,597639
2210,597899
2211,598156
2212,598418
2213,598681
2214,598935
2215,599188
2216,599454
2217,599709
2218,599962
2219,600217
2220,600471
2221,600733
2222,600990
2223,601245
2224,601510
2225,601764
2226,602015
2227,602272
2228,602523
2229,602779
2230,603034
2231,603285
2232,603540
2233,603800
2234,604054
2235,604307
2236,604564
2237,604820
2238,605088
2239,605350
2240,605606
2241,605871
2242,606134
2243,606388
2244,606649
2245,606908
2246,607169
2247,607422
2248,607675
2249,607942
2250,608196
2251,608444
2252,608704
2253,608960
2254,609214
2255,609475
2256,609734
2257,609996
2258,610260
2259,610519
2260,610779
2261,611036
2262,611301
2263,611567
2264,611823
2265,612082
2266,612348
2267,612607
2268,612866
2269,613124
2270,613383
2271,613646
2272,613904
2273,614161
2274,614425
2275,614687
2276,614939
2277,615197
2278,615453
2279,615713
2280,615968
2281,616224
2282,616486
2283,616744
2284,616998
2285,617259
2286,617515
2287,617765
2288,618027
2289,618282
2290,618536
2291,618795
2292,619055
2293,619302
2294,619557
2295,619814
2296,620080
2297,620334
2298,620590
2299,620850
2300,621108
2301,621360
2302,621617
2303,621870
2304,622127
2305,622389
2306,622646
2307,622903
2308,623169
2309,623436
2310,623692
2311,623956
2312,624219
2313,624486
2314,624746
2315,624920
2316,625271
2317,625531
2318,625785
2319,626047
2320,626303
2321,626561
2322,626826
2323,627085
2324,627349
2325,627613
2326,627873
2327,628133
2328,628392
2329,628655
2330,628918
2331,629173
2332,629430
2333,629693
2334,629950
2335,630207
2336,630466
2337,630722
2338,630986
2339,631245
2340,631504
2341,631773
2342,632033
2343,632285
2344,632547
2345,632802
2346,633058
2347,633312
2348,633569
2349,633831
2350,634091
2351,634349
2352,634609
2353,634866
2354,635127
2355,635396
2356,635653
2357,635917
2358,636188
2359,636454
2360,636714
2361,636976
2362,637239
2363,637503
2364,637760
2365,638020
2366,638280
2367,638536
2368,638792
2369,639048
2370,639303
2371,639567
2372,639830
2373,640088
2374,640355
2375,640621
2376,640875
2377,641137
2378,641394
2379,641658
2380,641917
2381,642177
2382,642447
2383,642706
2384,642963
2385,643228
2386,643488
2387,643748
2388,644013
2389,644272
2390,644537
2391,644801
2392,645055
2393,645311
2394,645567
2395,645826
2396,646090
2397,646338
2398,646594
2399,646856
2400,647113
2401,647367
2402,647623
2403,647879
2404,648143
2405,648404
2406,648662
2407,648932
2408,649191
2409,649442
2410,649701
2411,649957
