,R
0,70
1,550
2,1021
3,1498
4,1925
5,2340
6,2821
7,3259
8,3667
9,4154
10,4630
11,5071
12,5594
13,6073
14,6510
15,6991
16,7474
17,7920
18,8409
19,8892
20,9326
21,9793
22,10273
23,10713
24,11198
25,11681
26,12145
27,12635
28,13114
29,13530
30,13992
31,14438
32,14848
33,15276
34,15721
35,16111
36,16512
37,16948
38,17352
39,17739
40,18194
41,18620
42,19026
43,19492
44,19915
45,20318
46,20754
47,21165
48,21554
49,22001
50,22456
51,22873
52,23322
53,23759
54,24174
55,24617
56,25061
57,25465
58,25914
59,26350
60,26746
61,27120
62,27476
63,27840
64,28200
65,28541
66,28909
67,29289
68,29659
69,30066
70,30544
71,31001
72,31471
73,31933
74,32365
75,32799
76,33257
77,33674
78,34101
79,34546
80,34953
81,35373
82,35877
83,36304
84,36712
85,37217
86,37643
87,38031
88,38394
89,38743
90,39103
91,39480
92,39843
93,40226
94,40625
95,41017
96,41512
97,42010
98,42492
99,42985
100,43420
101,43864
102,44331
103,44751
104,45142
105,45560
106,46008
107,46429
108,46874
109,47332
110,47700
111,48066
112,48433
113,48813
114,49339
115,49807
116,50288
117,50766
118,51212
119,51683
120,52162
121,52587
122,53077
123,53545
124,53959
125,54398
126,54867
127,55297
128,55715
129,56185
130,56566
131,56947
132,57343
133,57762
134,58304
135,58809
136,59267
137,59747
138,60202
139,60639
140,61109
141,61538
142,61934
143,62358
144,62773
145,63168
146,63566
147,64063
148,64537
149,64939
150,65416
151,65872
152,66256
153,66621
154,66990
155,67346
156,67717
157,68228
158,68704
159,69206
160,69679
161,70151
162,70650
163,71094
164,71529
165,72010
166,72463
167,72885
168,73328
169,73741
170,74135
171,74599
172,75008
173,75378
174,75759
175,76128
176,76633
177,77109
178,77576
179,78072
180,78529
181,78983
182,79430
183,79838
184,80298
185,80728
186,81137
187,81557
188,82010
189,82405
190,82803
191,83171
192,83526
193,83903
194,84267
195,84654
196,85145
197,85614
198,86105
199,86590
200,87025
201,87455
202,87920
203,88346
204,88779
205,89228
206,89653
207,90069
208,90543
209,90975
210,91383
211,91828
212,92286
213,92700
214,93193
215,93628
216,94038
217,94490
218,94939
219,95347
220,95799
221,96244
222,96652
223,97105
224,97505
225,97882
226,98251
227,98606
228,98970
229,99325
230,99686
231,100046
232,100410
233,100915
234,101373
235,101842
236,102338
237,102792
238,103270
239,103768
240,104211
241,104662
242,105119
243,105541
244,105988
245,106467
246,106907
247,107361
248,107841
249,108286
250,108742
251,109231
252,109660
253,110130
254,110592
255,111014
256,111463
257,111888
258,112252
259,112611
260,112979
261,113336
262,113752
263,114278
264,114760
265,115241
266,115698
267,116156
268,116635
269,117078
270,117519
271,117975
272,118392
273,118851
274,119321
275,119745
276,120206
277,120663
278,121084
279,121557
280,122019
281,122439
282,122871
283,123261
284,123617
285,123987
286,124355
287,124743
288,125284
289,125775
290,126258
291,126751
292,127192
293,127677
294,128147
295,128575
296,129025
297,129483
298,129906
299,130310
300,130758
301,131187
302,131587
303,132014
304,132404
305,132828
306,133281
307,133708
308,134162
309,134615
310,135030
311,135469
312,135874
313,136300
314,136752
315,137170
316,137588
317,138011
318,138374
319,138729
320,139095
321,139455
322,139837
323,140317
324,140794
325,141233
326,141736
327,142189
328,142655
329,143113
330,143527
331,143973
332,144416
333,144823
334,145275
335,145720
336,146103
337,146532
338,146972
339,147373
340,147759
341,148158
342,148509
343,148866
344,149231
345,149594
346,149992
347,150457
348,150908
349,151367
350,151850
351,152283
352,152471
353,152737
354,153138
355,153555
356,153965
357,154396
358,154792
359,155193
360,155623
361,156034
362,156442
363,156870
364,157233
365,157598
366,157963
367,158317
368,158693
369,159137
370,159589
371,160009
372,160447
373,160866
374,161296
375,161666
376,162030
377,162396
378,162740
379,163073
380,163424
381,163815
382,164194
383,164563
384,164964
385,165391
386,165878
387,166333
388,166814
389,167277
390,167719
391,168191
392,168630
393,169051
394,169498
395,169907
396,170278
397,170641
398,170986
399,171336
400,171705
401,172120
402,172536
403,172985
404,173435
405,173852
406,174283
407,174697
408,175073
409,175445
410,175800
411,176148
412,176497
413,176841
414,177187
415,177562
416,178035
417,178513
418,179014
419,179487
420,179928
421,180401
422,180906
423,181337
424,181812
425,182299
426,182719
427,183169
428,183627
429,184039
430,184446
431,184821
432,185194
433,185564
434,185937
435,186348
436,186842
437,187324
438,187809
439,188264
440,188712
441,189183
442,189641
443,190074
444,190538
445,190956
446,191378
447,191820
448,192226
449,192651
450,193091
451,193499
452,193893
453,194254
454,194611
455,194973
456,195319
457,195683
458,196085
459,196506
460,197032
461,197510
462,197947
463,198339
464,198715
465,199081
466,199432
467,199775
468,200107
469,200457
470,200800
471,201139
472,201493
473,201866
474,202247
475,202644
476,203020
477,203409
478,203829
479,204287
480,204753
481,205255
482,205709
483,206174
484,206669
485,207111
486,207531
487,207967
488,208348
489,208716
490,209092
491,209466
492,209927
493,210472
494,210990
495,211507
496,211980
497,212455
498,212953
499,213397
500,213854
501,214282
502,214701
503,215152
504,215566
505,215933
506,216307
507,216697
508,217138
509,217658
510,218128
511,218626
512,219079
513,219522
514,219998
515,220449
516,220852
517,221241
518,221606
519,221972
520,222358
521,222859
522,223319
523,223801
524,224284
525,224733
526,225180
527,225596
528,226050
529,226511
530,226939
531,227396
532,227847
533,228273
534,228708
535,229137
536,229556
537,230008
538,230424
539,230837
540,231312
541,231720
542,232148
543,232614
544,233029
545,233456
546,233904
547,234337
548,234752
549,235214
550,235653
551,236059
552,236504
553,236952
554,237357
555,237812
556,238261
557,238668
558,239100
559,239545
560,239956
561,240377
562,240762
563,241138
564,241494
565,241848
566,242195
567,242556
568,242936
569,243430
570,243919
571,244408
572,244845
573,245286
574,245764
575,246198
576,246636
577,247106
578,247529
579,247996
580,248485
581,248894
582,249356
583,249824
584,250243
585,250700
586,251190
587,251614
588,252075
589,252515
590,252936
591,253381
592,253815
593,254221
594,254666
595,255107
596,255516
597,255979
598,256430
599,256840
600,257272
601,257737
602,258155
603,258619
604,259060
605,259468
606,259921
607,260338
608,260738
609,261168
610,261570
611,261958
612,262382
613,262795
614,263203
615,263641
616,264076
617,264482
618,264947
619,265398
620,265822
621,266296
622,266756
623,267167
624,267617
625,268047
626,268452
627,268891
628,269323
629,269725
630,270166
631,270651
632,271067
633,271508
634,271962
635,272392
636,272792
637,273249
638,273674
639,274027
640,274394
641,274737
642,275076
643,275427
644,275785
645,276263
646,276648
647,277034
648,277431
649,277879
650,278336
651,278764
652,279217
653,279655
654,280080
655,280521
656,280983
657,281401
658,281890
659,282385
660,282839
661,283328
662,283801
663,284263
664,284738
665,285201
666,285662
667,286101
668,286573
669,287011
670,287482
671,287949
672,288381
673,288813
674,289274
675,289682
676,290083
677,290473
678,290822
679,291178
680,291529
681,291872
682,292249
683,292781
684,293283
685,293795
686,294273
687,294718
688,295183
689,295632
690,296070
691,296526
692,296955
693,297382
694,297867
695,298299
696,298779
697,299257
698,299709
699,300156
700,300625
701,301050
702,301522
703,301974
704,302386
705,302827
706,303275
707,303675
708,304112
709,304551
710,304965
711,305432
712,305894
713,306331
714,306785
715,307255
716,307676
717,308113
718,308545
719,308955
720,309354
721,309804
722,310266
723,310684
724,311059
725,311413
726,311772
727,312149
728,312592
729,313002
730,313471
731,313945
732,314339
733,314756
734,315174
735,315564
736,315976
737,316400
738,316801
739,317252
740,317691
741,318093
742,318558
743,319014
744,319431
745,319881
746,320332
747,320743
748,321208
749,321648
750,322077
751,322530
752,322974
753,323398
754,323893
755,324343
756,324813
757,325283
758,325722
759,326150
760,326645
761,327095
762,327507
763,327984
764,328447
765,328867
766,329320
767,329756
768,330146
769,330578
770,331005
771,331413
772,331869
773,332312
774,332734
775,333201
776,333623
777,334026
778,334469
779,334896
780,335301
781,335759
782,336212
783,336625
784,337096
785,337568
786,338001
787,338463
788,338929
789,339351
790,339822
791,340275
792,340679
793,341115
794,341587
795,342005
796,342415
797,342857
798,343278
799,343684
800,344142
801,344591
802,344993
803,345450
804,345886
805,346285
806,346694
807,347115
808,347500
809,347883
810,348304
811,348727
812,349119
813,349566
814,350024
815,350439
816,350898
817,351365
818,351784
819,352246
820,352717
821,353126
822,353581
823,354038
824,354434
825,354855
826,355302
827,355708
828,356152
829,356624
830,357037
831,357467
832,357909
833,358351
834,358769
835,359228
836,359678
837,360095
838,360553
839,361011
840,361414
841,361836
842,362264
843,362665
844,363075
845,363509
846,363928
847,364319
848,364728
849,365146
850,365540
851,365986
852,366463
853,366908
854,367358
855,367808
856,368215
857,368655
858,369095
859,369508
860,369914
861,370339
862,370766
863,371169
864,371617
865,372050
866,372464
867,372925
868,373363
869,373766
870,374194
871,374627
872,375046
873,375506
874,375973
875,376396
876,376824
877,377237
878,377586
879,377950
880,378297
881,378621
882,378960
883,379297
884,379686
885,380085
886,380601
887,381094
888,381558
889,382052
890,382538
891,383007
892,383496
893,383941
894,384386
895,384830
896,385227
897,385646
898,386074
899,386474
900,386897
901,387319
902,387718
903,388187
904,388615
905,389028
906,389487
907,389965
908,390389
909,390885
910,391359
911,391797
912,392255
913,392708
914,393115
915,393598
916,394064
917,394482
918,394948
919,395376
920,395779
921,396229
922,396663
923,397051
924,397509
925,397954
926,398328
927,398688
928,399045
929,399396
930,399748
931,400147
932,400561
933,401098
934,401591
935,402079
936,402572
937,403037
938,403512
939,403967
940,404384
941,404827
942,405259
943,405664
944,406129
945,406554
946,406936
947,407339
948,407793
949,408202
950,408661
951,409172
952,409621
953,410054
954,410521
955,410944
956,411371
957,411799
958,412180
959,412592
960,413082
961,413542
962,413977
963,414443
964,414877
965,415283
966,415715
967,416169
968,416575
969,417049
970,417472
971,417905
972,418371
973,418798
974,419233
975,419678
976,420095
977,420482
978,420905
979,421358
980,421776
981,422218
982,422670
983,423081
984,423495
985,423919
986,424329
987,424718
988,425138
989,425557
990,425939
991,426372
992,426809
993,427209
994,427638
995,428093
996,428490
997,428911
998,429296
999,429645
1000,429998
1001,430352
1002,430696
1003,431122
1004,431643
1005,432129
1006,432625
1007,433102
1008,433544
1009,434023
1010,434446
1011,434861
1012,435297
1013,435762
1014,436167
1015,436629
1016,437080
1017,437486
1018,437924
1019,438371
1020,438763
1021,439175
1022,439606
1023,440014
1024,440423
1025,440901
1026,441398
1027,441835
1028,442312
1029,442777
1030,443204
1031,443661
1032,444135
1033,444536
1034,444993
1035,445443
1036,445846
1037,446290
1038,446734
1039,447137
1040,447527
1041,447981
1042,448447
1043,448859
1044,449320
1045,449781
1046,450183
1047,450643
1048,451097
1049,451497
1050,451955
1051,452399
1052,452803
1053,453220
1054,453694
1055,454129
1056,454557
1057,455005
1058,455437
1059,455829
1060,456262
1061,456687
1062,457072
1063,457488
1064,457907
1065,458293
1066,458690
1067,459135
1068,459557
1069,459968
1070,460403
1071,460857
1072,461262
1073,461746
1074,462213
1075,462627
1076,463081
1077,463560
1078,463994
1079,464451
1080,464926
1081,465361
1082,465777
1083,466239
1084,466694
1085,467104
1086,467553
1087,468001
1088,468402
1089,468835
1090,469269
1091,469663
1092,470108
1093,470561
1094,470989
1095,471382
1096,471822
1097,472247
1098,472645
1099,473084
1100,473534
1101,473940
1102,474365
1103,474807
1104,475213
1105,475622
1106,476058
1107,476437
1108,476800
1109,477154
1110,477496
1111,477844
1112,478192
1113,478544
1114,478890
1115,479239
1116,479617
1117,480143
1118,480608
1119,481066
1120,481569
1121,482028
1122,482485
1123,482990
1124,483463
1125,483869
1126,484251
1127,484623
1128,484960
1129,485307
1130,485648
1131,485992
1132,486354
1133,486735
1134,487144
1135,487673
1136,488174
1137,488645
1138,489154
1139,489628
1140,490085
1141,490560
1142,491021
1143,491506
1144,491983
1145,492411
1146,492891
1147,493355
1148,493780
1149,494255
1150,494686
1151,495077
1152,495509
1153,495947
1154,496357
1155,496819
1156,497280
1157,497696
1158,498150
1159,498581
1160,498987
1161,499457
1162,499927
1163,500341
1164,500812
1165,501262
1166,501664
1167,502095
1168,502494
1169,502880
1170,503313
1171,503794
1172,504198
1173,504657
1174,505119
1175,505535
1176,505937
1177,506315
1178,506662
1179,507003
1180,507343
1181,507685
1182,508049
1183,508556
1184,509074
1185,509538
1186,510046
1187,510545
1188,511010
1189,511480
1190,511964
1191,512411
1192,512866
1193,513311
1194,513743
1195,514154
1196,514603
1197,515045
1198,515450
1199,515913
1200,516360
1201,516778
1202,517185
1203,517576
1204,517952
1205,518360
1206,518746
1207,519175
1208,519611
1209,520014
1210,520408
1211,520802
1212,521168
1213,521535
1214,521904
1215,522295
1216,522663
1217,523023
1218,523415
1219,523794
1220,524161
1221,524523
1222,524901
1223,525272
1224,525613
1225,525977
1226,526331
1227,526665
1228,527019
1229,527367
1230,527727
1231,528087
1232,528454
1233,528846
1234,529223
1235,529598
1236,530038
1237,530505
1238,530958
1239,531448
1240,531915
1241,532313
1242,532749
1243,533184
1244,533599
1245,534075
1246,534530
1247,534992
1248,535425
1249,535828
1250,536267
1251,536739
1252,537231
1253,537708
1254,538196
1255,538580
1256,538965
1257,539350
1258,539722
1259,540116
1260,540594
1261,541089
1262,541612
1263,542120
1264,542591
1265,543085
1266,543547
1267,543965
1268,544423
1269,544865
1270,545272
1271,545684
1272,545876
1273,546120
1274,546482
1275,546863
1276,547249
1277,547606
1278,547961
1279,548332
1280,548700
1281,549080
1282,549529
1283,549999
1284,550476
1285,550946
1286,551387
1287,551818
1288,552306
1289,552774
1290,553193
1291,553651
1292,554075
1293,554474
1294,554914
1295,555353
1296,555767
1297,556225
1298,556707
1299,557096
1300,557457
1301,557819
1302,558176
1303,558551
1304,558949
1305,559442
1306,559942
1307,560447
1308,560927
1309,561429
1310,561901
1311,562340
1312,562786
1313,563246
1314,563654
1315,564089
1316,564538
1317,564960
1318,565345
1319,565716
1320,566087
1321,566441
1322,566818
1323,567238
1324,567664
1325,568196
1326,568668
1327,569129
1328,569616
1329,570068
1330,570497
1331,570955
1332,571373
1333,571779
1334,572238
1335,572726
1336,573155
1337,573636
1338,574074
1339,574534
1340,574999
1341,575427
1342,575928
1343,576416
1344,576838
1345,577295
1346,577737
1347,578111
1348,578473
1349,578841
1350,579200
1351,579586
1352,580104
1353,580573
1354,581070
1355,581535
1356,581979
1357,582461
1358,582890
1359,583301
1360,583764
1361,584215
1362,584649
1363,585119
1364,585577
1365,585993
1366,586452
1367,586880
1368,587294
1369,587736
1370,588156
1371,588561
1372,589012
1373,589433
1374,589844
1375,590311
1376,590756
1377,591182
1378,591643
1379,592101
1380,592508
1381,592961
1382,593373
1383,593765
1384,594194
1385,594620
1386,595022
1387,595488
1388,595968
1389,596380
1390,596837
1391,597315
1392,597741
1393,598165
1394,598635
1395,599060
1396,599444
1397,599851
1398,600047
1399,600265
1400,600572
1401,600923
1402,601286
1403,601682
1404,602230
1405,602724
1406,603231
1407,603736
1408,604203
1409,604699
1410,605178
1411,605616
1412,606057
1413,606503
1414,606931
1415,607346
1416,607789
1417,608242
1418,608660
1419,609129
1420,609586
1421,609999
1422,610430
1423,610850
1424,611243
1425,611671
1426,612084
1427,612492
1428,612945
1429,613386
1430,613807
1431,614262
1432,614691
1433,615082
1434,615518
1435,615924
1436,616322
1437,616747
1438,617152
1439,617521
1440,617884
1441,618247
1442,618598
1443,618976
1444,619464
1445,619938
1446,620439
1447,620928
1448,621357
1449,621827
1450,622290
1451,622715
1452,623149
1453,623618
1454,624044
1455,624446
1456,624892
1457,625326
1458,625727
1459,626164
1460,626574
1461,626974
1462,627409
1463,627839
1464,628255
1465,628721
1466,629216
1467,629658
1468,630088
1469,630523
1470,630939
1471,631365
1472,631852
1473,632309
1474,632750
1475,633206
1476,633647
1477,634055
1478,634502
1479,634949
1480,635359
1481,635790
1482,636225
1483,636624
1484,637056
1485,637517
1486,637934
1487,638322
1488,638744
1489,639156
1490,639560
1491,639973
1492,640376
1493,640741
1494,641078
1495,641424
1496,641757
1497,642098
1498,642453
1499,642815
1500,643218
1501,643627
1502,644007
1503,644401
1504,644786
1505,645149
1506,645504
1507,645952
1508,646355
1509,646736
1510,647117
1511,647505
1512,647876
1513,648247
1514,648626
1515,648997
1516,649342
1517,649689
