,R
0,225
1,487
2,689
3,964
4,1147
5,1433
6,1610
7,1882
8,2072
9,2331
10,2506
11,2784
12,2989
13,3300
14,3484
15,3738
16,3975
17,4201
18,4416
19,4646
20,4880
21,5134
22,5381
23,5605
24,5821
25,6087
26,6285
27,6547
28,6718
29,7076
30,7260
31,7455
32,7899
33,8074
34,8394
35,8577
36,8726
37,9170
38,9384
39,9710
40,9963
41,10197
42,10436
43,10673
44,10901
45,11132
46,11361
47,11617
48,11857
49,12159
50,12364
51,12721
52,12900
53,13052
54,13522
55,13733
56,14101
57,14360
58,14538
59,14903
60,15085
61,15410
62,15595
63,15928
64,16195
65,16385
66,16695
67,16880
68,17164
69,17338
70,17666
71,17860
72,18199
73,18383
74,18697
75,18939
76,19128
77,19432
78,19606
79,19915
80,20099
81,20430
82,20641
83,20953
84,21120
85,21390
86,21574
87,21873
88,22057
89,22388
90,22646
91,22880
92,23122
93,23347
94,23602
95,23857
96,24098
97,24341
98,24595
99,24824
100,25102
101,25313
102,25627
103,25795
104,25993
105,26387
106,26595
107,26918
108,27109
109,27474
110,27652
111,28018
112,28203
113,28559
114,28747
115,29108
116,29311
117,29662
118,29896
119,30123
120,30286
121,30597
122,30788
123,31128
124,31323
125,31615
126,31793
127,32095
128,32286
129,32599
130,32770
131,33099
132,33367
133,33637
134,33908
135,34159
136,34408
137,34660
138,34945
139,35234
140,35531
141,35884
142,36087
143,36445
144,36629
145,36994
146,37184
147,37556
148,37789
149,38127
150,38319
151,38635
152,38810
153,39129
154,39319
155,39484
156,39791
157,40200
158,40377
159,40688
160,40889
161,41164
162,41355
163,41732
164,41928
165,42277
166,42542
167,42730
168,43032
169,43212
170,43516
171,43722
172,44063
173,44261
174,44569
175,44756
176,45060
177,45245
178,45569
179,45759
180,46085
181,46270
182,46608
183,46835
184,47027
185,47352
186,47544
187,47857
188,48043
189,48374
190,48710
191,49016
192,49273
193,49553
194,49834
195,50112
196,50385
197,50660
198,50927
199,51197
200,51461
201,51707
202,51954
203,52200
204,52486
205,52784
206,53063
207,53300
208,53541
209,53789
210,54037
211,54289
212,54555
213,54823
214,55070
215,55329
216,55604
217,55845
218,56080
219,56321
220,56571
221,56820
222,57096
223,57375
224,57618
225,57857
226,58096
227,58352
228,58608
229,58878
230,59140
231,59399
232,59649
233,59905
234,60162
235,60402
236,60646
237,60883
238,61148
239,61436
240,61706
241,61947
242,62182
243,62424
244,62671
245,62920
246,63181
247,63444
248,63633
249,63859
250,64209
251,64395
252,64628
253,64936
254,65114
255,65441
256,65638
257,65988
258,66173
259,66478
260,66647
261,66953
262,67155
263,67471
264,67668
265,67997
266,68191
267,68514
268,68701
269,69036
270,69212
271,69532
272,69754
273,70100
274,70307
275,70618
276,70798
277,71086
278,71261
279,71576
280,71819
281,72110
282,72320
283,72612
284,72805
285,73125
286,73309
287,73599
288,73788
289,74094
290,74282
291,74596
292,74853
293,75084
294,75318
295,75517
296,75785
297,76059
298,76333
299,76583
300,76841
301,77100
302,77346
303,77564
304,77856
305,78043
306,78374
307,78565
308,78948
309,79133
310,79451
311,79657
312,79935
313,80174
314,80438
315,80686
316,80972
317,81170
318,81459
319,81653
320,81962
321,82144
322,82428
323,82613
324,82764
325,83181
326,83371
327,83667
328,83909
329,84125
330,84351
331,84595
332,84845
333,85098
334,85321
335,85547
336,85791
337,85981
338,86230
339,86473
340,86694
341,86927
342,87160
343,87340
344,87666
345,87848
346,88135
347,88356
348,88572
349,88801
350,89037
351,89285
352,89549
353,89784
354,90008
355,90228
356,90463
357,90704
358,90940
359,91173
360,91408
361,91663
362,91898
363,92140
364,92383
365,92581
366,92834
367,93032
368,93287
369,93511
370,93818
371,94047
372,94292
373,94517
374,94736
375,94965
376,95196
377,95405
378,95676
379,95913
380,96152
381,96354
382,96637
383,96819
384,97073
385,97290
386,97511
387,97734
388,97983
389,98234
390,98471
391,98661
392,98907
393,99123
394,99361
395,99592
396,99832
397,99998
398,100289
399,100529
400,100748
401,100949
402,101213
403,101386
404,101648
405,101859
406,102083
407,102352
408,102593
409,102825
410,103032
411,103238
412,103452
413,103658
414,103878
415,104095
416,104336
417,104533
418,104786
419,105015
420,105251
421,105466
422,105681
423,105863
424,106085
425,106262
426,106528
427,106771
428,107015
429,107236
430,107453
431,107656
432,107867
433,108094
434,108321
435,108533
436,108779
437,109014
438,109245
439,109457
440,109682
441,109879
442,110122
443,110335
444,110542
445,110725
446,111000
447,111223
448,111479
449,111700
450,111902
451,112101
452,112306
453,112509
454,112736
455,112970
456,113206
457,113404
458,113637
459,113834
460,114093
461,114287
462,114521
463,114719
464,114932
465,115144
466,115376
467,115613
468,115839
469,116039
470,116262
471,116436
472,116662
473,116861
474,117121
475,117313
476,117579
477,117805
478,118017
479,118211
480,118444
481,118623
482,118881
483,119096
484,119325
485,119538
486,119785
487,120016
488,120253
489,120442
490,120673
491,120878
492,121097
493,121288
494,121547
495,121759
496,122042
497,122268
498,122484
499,122696
500,122942
501,123128
502,123390
503,123612
504,123838
505,124077
506,124322
507,124540
508,124787
509,124976
510,125222
511,125441
512,125684
513,125923
514,126168
515,126411
516,126641
517,126860
518,127078
519,127277
520,127542
521,127733
522,128008
523,128203
524,128489
525,128740
526,128982
527,129215
528,129418
529,129636
530,129870
531,130087
532,130339
533,130584
534,130842
535,131042
536,131284
537,131466
538,131754
539,131989
540,132235
541,132468
542,132704
543,132929
544,133096
545,133419
546,133618
547,133877
548,134111
549,134336
550,134598
551,134883
552,135131
553,135362
554,135583
555,135819
556,136034
557,136272
558,136520
559,136761
560,137014
561,137244
562,137479
563,137725
564,137949
565,138173
566,138393
567,138625
568,138868
569,139123
570,139382
571,139638
572,139878
573,140105
574,140332
575,140584
576,140802
577,141083
578,141242
579,141570
580,141772
581,142044
582,142226
583,142533
584,142740
585,142968
586,143161
587,143635
588,143828
589,143988
590,144408
591,144592
592,144926
593,145203
594,145484
595,145759
596,146010
597,146268
598,146441
599,146757
600,146939
601,147215
602,147402
603,147711
604,147918
605,148218
606,148475
607,148710
608,148928
609,149157
610,149407
611,149647
612,149900
613,150127
614,150372
615,150612
616,150849
617,151096
618,151344
619,151594
620,151845
621,152116
622,152399
623,152662
624,152921
625,153150
626,153339
627,153613
628,153826
629,154260
630,154459
631,154799
632,155010
633,155313
634,155505
635,155822
636,155997
637,156316
638,156519
639,156838
640,157023
641,157322
642,157512
643,157777
644,157959
645,158293
646,158494
647,158812
648,158991
649,159270
650,159455
651,159753
652,159922
653,160251
654,160514
655,160719
656,160919
657,161381
658,161560
659,161902
660,162159
661,162417
662,162690
663,162970
664,163235
665,163487
666,163720
667,163922
668,164221
669,164411
670,164731
671,164916
672,165245
673,165435
674,165751
675,165936
676,166243
677,166488
678,166729
679,167002
680,167285
681,167555
682,167745
683,168030
684,168223
685,168499
686,168687
687,169008
688,169197
689,169386
690,169729
691,169910
692,170275
693,170527
694,170755
695,171000
696,171266
697,171532
698,171814
699,172054
700,172342
701,172523
702,172857
703,173061
704,173434
705,173646
706,174029
707,174227
708,174598
709,174788
710,175150
711,175357
712,175698
713,175916
714,176300
715,176573
716,176799
717,177033
718,177272
719,177513
720,177774
721,178045
722,178259
723,178525
724,178762
725,178967
726,179258
727,179496
728,179740
729,179958
730,180257
731,180449
732,180767
733,180969
734,181259
735,181429
736,181721
737,181927
738,182272
739,182480
740,182786
741,183034
742,183208
743,183507
744,183703
745,184004
746,184208
747,184523
748,184730
749,185050
750,185236
751,185500
752,185739
753,185975
754,186212
755,186480
756,186770
757,186983
758,187277
759,187438
760,187827
761,188018
762,188366
763,188553
764,188879
765,189230
766,189521
767,189811
768,190080
769,190337
770,190620
771,190941
772,191236
773,191505
774,191772
775,192037
776,192299
777,192568
778,192852
779,193125
780,193381
781,193644
782,193920
783,194169
784,194418
785,194661
786,194918
787,195179
788,195468
789,195753
790,196001
791,196245
792,196485
793,196756
794,197026
795,197300
796,197544
797,197794
798,198044
799,198288
800,198537
801,198793
802,199039
803,199288
804,199566
805,199868
806,200130
807,200382
808,200624
809,200864
810,201097
811,201359
812,201651
813,201918
814,202181
815,202437
816,202649
817,202959
818,203152
819,203461
820,203662
821,203980
822,204189
823,204516
824,204740
825,205010
826,205185
827,205477
828,205688
829,206014
830,206225
831,206513
832,206697
833,206977
834,207163
835,207457
836,207653
837,207887
838,208194
839,208413
840,208730
841,208920
842,209212
843,209389
844,209652
845,209841
846,210162
847,210370
848,210703
849,210889
850,211174
851,211360
852,211666
853,211855
854,212176
855,212400
856,212660
857,212870
858,213203
859,213389
860,213716
861,213905
862,214195
863,214403
864,214780
865,215025
866,215324
867,215513
868,215806
869,215979
870,216300
871,216565
872,216810
873,217121
874,217288
875,217465
876,217895
877,218093
878,218379
879,218629
880,218881
881,219157
882,219376
883,219683
884,219865
885,220135
886,220311
887,220638
888,220847
889,221176
890,221367
891,221665
892,221859
893,222150
894,222393
895,222637
896,222869
897,223129
898,223379
899,223651
900,223910
901,224155
902,224379
903,224615
904,224850
905,225104
906,225382
907,225660
908,225894
909,226161
910,226356
911,226680
912,226859
913,227018
914,227195
915,227616
916,227842
917,228234
918,228427
919,228744
920,228976
921,229207
922,229464
923,229739
924,230010
925,230244
926,230480
927,230718
928,230906
929,231170
930,231363
931,231665
932,231889
933,232155
934,232377
935,232654
936,232889
937,233122
938,233316
939,233553
940,233752
941,234032
942,234243
943,234431
944,234778
945,234980
946,235218
947,235448
948,235696
949,235911
950,236194
951,236384
952,236661
953,236892
954,237121
955,237321
956,237584
957,237777
958,238021
959,238255
960,238514
961,238731
962,238899
963,239231
964,239454
965,239670
966,239854
967,240119
968,240320
969,240611
970,240856
971,241077
972,241267
973,241537
974,241771
975,241981
976,242167
977,242435
978,242684
979,242918
980,243128
981,243400
982,243583
983,243850
984,244056
985,244277
986,244486
987,244778
988,244984
989,245261
990,245489
991,245719
992,245897
993,246132
994,246320
995,246605
996,246853
997,247080
998,247300
999,247585
1000,247780
1001,248043
1002,248247
1003,248453
1004,248652
1005,248903
1006,249106
1007,249413
1008,249647
1009,249871
1010,250083
1011,250305
1012,250542
1013,250764
1014,250978
1015,251221
1016,251426
1017,251705
1018,251885
1019,252147
1020,252387
1021,252606
1022,252829
1023,253035
1024,253265
1025,253504
1026,253787
1027,254030
1028,254250
1029,254467
1030,254686
1031,254873
1032,255127
1033,255358
1034,255629
1035,255834
1036,256093
1037,256297
1038,256574
1039,256815
1040,257051
1041,257239
1042,257493
1043,257684
1044,257974
1045,258204
1046,258490
1047,258718
1048,258943
1049,259119
1050,259387
1051,259588
1052,259907
1053,260179
1054,260413
1055,260626
1056,260878
1057,261069
1058,261345
1059,261539
1060,261830
1061,262071
1062,262323
1063,262568
1064,262842
1065,263041
1066,263300
1067,263473
1068,263762
1069,264002
1070,264262
1071,264534
1072,264777
1073,265013
1074,265237
1075,265481
1076,265730
1077,265975
1078,266206
1079,266460
1080,266720
1081,266893
1082,267212
1083,267417
1084,267704
1085,267910
1086,268168
1087,268397
1088,268704
1089,268917
1090,269237
1091,269418
1092,269713
1093,269887
1094,270187
1095,270391
1096,270733
1097,270995
1098,271242
1099,271505
1100,271759
1101,271977
1102,272206
1103,272438
1104,272685
1105,272924
1106,273187
1107,273456
1108,273690
1109,273923
1110,274140
1111,274379
1112,274641
1113,274903
1114,275167
1115,275422
1116,275671
1117,275900
1118,276143
1119,276394
1120,276633
1121,276877
1122,277094
1123,277386
1124,277678
1125,277925
1126,278189
1127,278425
1128,278640
1129,278891
1130,279158
1131,279431
1132,279713
1133,279970
1134,280214
1135,280472
1136,280680
1137,280988
1138,281196
1139,281482
1140,281717
1141,281984
1142,282254
1143,282508
1144,282737
1145,282958
1146,283165
1147,283433
1148,283687
1149,283965
1150,284159
1151,284437
1152,284620
1153,284895
1154,285084
1155,285387
1156,285574
1157,285898
1158,286152
1159,286414
1160,286638
1161,286913
1162,287095
1163,287359
1164,287541
1165,287835
1166,288045
1167,288379
1168,288606
1169,288867
1170,289043
1171,289316
1172,289512
1173,289669
1174,290071
1175,290260
1176,290561
1177,290801
1178,291036
1179,291270
1180,291504
1181,291724
1182,291953
1183,292173
1184,292441
1185,292676
1186,292959
1187,293143
1188,293397
1189,293621
1190,293834
1191,294034
1192,294307
1193,294523
1194,294808
1195,295033
1196,295255
1197,295491
1198,295727
1199,295949
1200,296171
1201,296395
1202,296630
1203,296873
1204,297119
1205,297339
1206,297597
1207,297790
1208,298023
1209,298232
1210,298464
1211,298701
1212,298979
1213,299227
1214,299442
1215,299656
1216,299873
1217,300087
1218,300306
1219,300542
1220,300756
1221,300986
1222,301209
1223,301415
1224,301691
1225,301912
1226,302135
1227,302312
1228,302537
1229,302753
1230,302965
1231,303186
1232,303440
1233,303666
1234,303882
1235,304069
1236,304278
1237,304495
1238,304725
1239,304924
1240,305161
1241,305376
1242,305593
1243,305806
1244,306018
1245,306230
1246,306449
1247,306650
1248,306855
1249,307051
1250,307262
1251,307497
1252,307741
1253,307960
1254,308179
1255,308374
1256,308564
1257,308765
1258,308956
1259,309168
1260,309396
1261,309625
1262,309855
1263,310066
1264,310270
1265,310488
1266,310715
1267,310919
1268,311132
1269,311324
1270,311532
1271,311760
1272,311974
1273,312207
1274,312436
1275,312646
1276,312852
1277,313046
1278,313240
1279,313455
1280,313693
1281,313921
1282,314163
1283,314371
1284,314580
1285,314802
1286,314995
1287,315209
1288,315425
1289,315628
1290,315856
1291,316074
1292,316297
1293,316538
1294,316778
1295,316991
1296,317208
1297,317405
1298,317601
1299,317818
1300,318031
1301,318270
1302,318523
1303,318757
1304,318982
1305,319182
1306,319386
1307,319608
1308,319830
1309,320052
1310,320279
1311,320502
1312,320718
1313,320940
1314,321164
1315,321379
1316,321602
1317,321806
1318,322018
1319,322217
1320,322447
1321,322680
1322,322956
1323,323178
1324,323392
1325,323603
1326,323812
1327,323987
1328,324232
1329,324467
1330,324702
1331,324933
1332,325154
1333,325380
1334,325612
1335,325840
1336,326054
1337,326263
1338,326473
1339,326690
1340,326913
1341,327155
1342,327388
1343,327633
1344,327845
1345,328063
1346,328264
1347,328485
1348,328734
1349,328944
1350,329208
1351,329400
1352,329660
1353,329887
1354,330100
1355,330322
1356,330561
1357,330754
1358,331021
1359,331248
1360,331501
1361,331726
1362,332001
1363,332210
1364,332422
1365,332601
1366,332871
1367,333092
1368,333336
1369,333600
1370,333836
1371,334045
1372,334267
1373,334457
1374,334735
1375,334957
1376,335194
1377,335424
1378,335670
1379,335921
1380,336145
1381,336390
1382,336627
1383,336835
1384,337073
1385,337263
1386,337529
1387,337753
1388,338071
1389,338281
1390,338553
1391,338777
1392,339008
1393,339228
1394,339471
1395,339738
1396,339989
1397,340242
1398,340435
1399,340610
1400,340959
1401,341142
1402,341426
1403,341648
1404,341877
1405,342122
1406,342308
1407,342621
1408,342834
1409,343082
1410,343295
1411,343512
1412,343761
1413,344018
1414,344273
1415,344521
1416,344745
1417,344995
1418,345189
1419,345451
1420,345642
1421,345927
1422,346118
1423,346403
1424,346609
1425,346933
1426,347121
1427,347407
1428,347591
1429,347846
1430,348038
1431,348329
1432,348534
1433,348841
1434,349032
1435,349318
1436,349495
1437,349771
1438,349970
1439,350255
1440,350459
1441,350724
1442,350933
1443,351206
1444,351406
1445,351691
1446,351884
1447,352155
1448,352331
1449,352624
1450,352906
1451,353180
1452,353441
1453,353659
1454,353883
1455,354110
1456,354285
1457,354583
1458,354801
1459,355092
1460,355295
1461,355601
1462,355800
1463,356116
1464,356366
1465,356550
1466,356827
1467,357052
1468,357364
1469,357572
1470,357946
1471,358124
1472,358419
1473,358600
1474,358909
1475,359185
1476,359466
1477,359713
1478,359947
1479,360163
1480,360399
1481,360605
1482,360887
1483,361074
1484,361226
1485,361610
1486,361822
1487,362142
1488,362339
1489,362594
1490,362761
1491,363043
1492,363232
1493,363530
1494,363738
1495,364070
1496,364258
1497,364527
1498,364704
1499,365003
1500,365204
1501,365501
1502,365686
1503,365987
1504,366195
1505,366477
1506,366666
1507,366962
1508,367142
1509,367404
1510,367578
1511,367906
1512,368134
1513,368450
1514,368639
1515,368919
1516,369103
1517,369367
1518,369557
1519,369876
1520,370081
1521,370401
1522,370586
1523,370896
1524,371102
1525,371400
1526,371587
1527,371883
1528,372074
1529,372404
1530,372612
1531,372928
1532,373132
1533,373273
1534,373706
1535,373898
1536,374353
1537,374584
1538,374916
1539,375168
1540,375412
1541,375662
1542,375883
1543,376160
1544,376430
1545,376680
1546,376952
1547,377244
1548,377494
1549,377742
1550,377980
1551,378234
1552,378493
1553,378788
1554,379038
1555,379322
1556,379702
1557,379898
1558,380295
1559,380487
1560,380915
1561,381119
1562,381525
1563,381717
1564,382088
1565,382304
1566,382620
1567,382803
1568,383168
1569,383451
1570,383761
1571,383952
1572,384244
1573,384439
1574,384748
1575,384946
1576,385313
1577,385515
1578,385684
1579,385887
1580,386082
1581,386288
1582,386608
1583,386805
1584,387113
1585,387307
1586,387636
1587,387844
1588,388175
1589,388365
1590,388660
1591,388834
1592,389161
1593,389384
1594,389741
1595,389941
1596,390259
1597,390455
1598,390762
1599,390947
1600,391285
1601,391483
1602,391829
1603,392027
1604,392398
1605,392599
1606,392924
1607,393102
1608,393433
1609,393656
1610,393996
1611,394234
1612,394571
1613,394763
1614,394913
1615,395352
1616,395557
1617,395930
1618,396126
1619,396325
1620,396468
1621,396585
1622,396904
1623,397091
1624,397521
1625,397718
1626,398082
1627,398314
1628,398647
1629,399037
1630,399221
1631,399576
1632,399754
1633,400143
1634,400371
1635,400771
1636,400987
1637,401310
1638,401553
1639,401839
1640,402030
1641,402348
1642,402556
1643,402724
1644,403149
1645,403357
1646,403659
1647,403844
1648,404125
1649,404331
1650,404685
1651,404899
1652,405215
1653,405460
1654,405648
1655,405929
1656,406130
1657,406428
1658,406620
1659,406896
1660,407075
1661,407450
1662,407653
1663,407973
1664,408148
1665,408325
1666,408537
1667,408951
1668,409157
1669,409507
1670,409703
1671,409996
1672,410177
1673,410500
1674,410689
1675,411030
1676,411227
1677,411548
1678,411739
1679,412042
1680,412237
1681,412539
1682,412726
1683,413027
1684,413236
1685,413609
1686,413807
1687,413979
1688,414362
1689,414539
1690,414843
1691,415105
1692,415384
1693,415655
1694,415894
1695,416153
1696,416412
1697,416680
1698,416868
1699,417132
1700,417346
1701,417497
1702,417973
1703,418178
1704,418568
1705,418782
1706,419057
1707,419280
1708,419608
1709,419895
1710,420113
1711,420416
1712,420614
1713,420898
1714,421085
1715,421391
1716,421602
1717,421932
1718,422128
1719,422462
1720,422677
1721,422877
1722,423246
1723,423427
1724,423744
1725,423946
1726,424280
1727,424496
1728,424825
1729,425022
1730,425300
1731,425487
1732,425829
1733,426037
1734,426214
1735,426624
1736,426822
1737,427124
1738,427328
1739,427632
1740,427809
1741,428095
1742,428291
1743,428620
1744,428850
1745,429169
1746,429359
1747,429610
1748,429791
1749,430116
1750,430325
1751,430684
1752,430881
1753,431196
1754,431386
1755,431555
1756,431943
1757,432138
1758,432419
1759,432619
1760,432913
1761,433113
1762,433450
1763,433656
1764,433950
1765,434142
1766,434426
1767,434634
1768,434991
1769,435219
1770,435524
1771,435713
1772,436004
1773,436189
1774,436480
1775,436696
1776,436996
1777,437194
1778,437497
1779,437710
1780,438002
1781,438200
1782,438462
1783,438649
1784,438938
1785,439135
1786,439456
1787,439679
1788,439985
1789,440179
1790,440450
1791,440643
1792,440942
1793,441146
1794,441477
1795,441678
1796,442006
1797,442199
1798,442471
1799,442675
1800,442991
1801,443183
1802,443465
1803,443684
1804,444039
1805,444241
1806,444525
1807,444715
1808,444987
1809,445164
1810,445473
1811,445692
1812,446006
1813,446215
1814,446498
1815,446688
1816,446985
1817,447177
1818,447475
1819,447669
1820,447968
1821,448165
1822,448464
1823,448666
1824,448953
1825,449142
1826,449400
1827,449589
1828,449918
1829,450140
1830,450456
1831,450639
1832,450899
1833,451104
1834,451389
1835,451577
1836,451885
1837,452076
1838,452383
1839,452578
1840,452891
1841,453097
1842,453379
1843,453545
1844,453826
1845,454032
1846,454300
1847,454510
1848,454877
1849,455064
1850,455366
1851,455547
1852,455867
1853,456072
1854,456405
1855,456605
1856,456925
1857,457129
1858,457424
1859,457616
1860,457935
1861,458125
1862,458406
1863,458605
1864,458994
1865,459210
1866,459548
1867,459722
1868,459990
1869,460188
1870,460342
1871,460793
1872,461003
1873,461357
1874,461623
1875,461878
1876,462148
1877,462392
1878,462593
1879,462881
1880,463090
1881,463396
1882,463603
1883,463797
1884,464136
1885,464323
1886,464588
1887,464784
1888,465100
1889,465312
1890,465628
1891,465816
1892,466080
1893,466278
1894,466532
1895,466727
1896,467029
1897,467229
1898,467528
1899,467724
1900,468020
1901,468230
1902,468516
1903,468708
1904,468970
1905,469162
1906,469452
1907,469678
1908,470008
1909,470201
1910,470485
1911,470660
1912,470924
1913,471133
1914,471456
1915,471678
1916,471974
1917,472164
1918,472454
1919,472649
1920,472930
1921,473125
1922,473411
1923,473604
1924,473906
1925,474128
1926,474420
1927,474625
1928,474934
1929,475110
1930,475434
1931,475707
1932,475987
1933,476276
1934,476540
1935,476741
1936,477005
1937,477245
1938,477549
1939,477757
1940,478068
1941,478273
1942,478555
1943,478764
1944,479117
1945,479305
1946,479612
1947,479803
1948,479987
1949,480410
1950,480641
1951,480985
1952,481204
1953,481475
1954,481655
1955,481975
1956,482191
1957,482484
1958,482699
1959,483086
1960,483288
1961,483631
1962,483830
1963,484111
1964,484300
1965,484605
1966,484823
1967,485147
1968,485347
1969,485627
1970,485800
1971,486098
1972,486302
1973,486628
1974,486844
1975,487122
1976,487316
1977,487629
1978,487817
1979,488120
1980,488363
1981,488580
1982,488844
1983,489100
1984,489379
1985,489639
1986,489891
1987,490078
1988,490335
1989,490551
1990,490842
1991,491051
1992,491363
1993,491562
1994,491875
1995,492060
1996,492381
1997,492579
1998,492872
1999,493060
2000,493363
2001,493573
2002,493848
2003,494046
2004,494346
2005,494528
2006,494777
2007,494964
2008,495285
2009,495505
2010,495813
2011,496007
2012,496274
2013,496456
2014,496723
2015,496926
2016,497219
2017,497424
2018,497738
2019,497940
2020,498086
2021,498473
2022,498660
2023,498950
2024,499131
2025,499399
2026,499604
2027,499920
2028,500137
2029,500445
2030,500629
2031,500903
2032,501086
2033,501343
2034,501570
2035,501931
2036,502143
2037,502433
2038,502634
2039,502890
2040,503086
2041,503383
2042,503575
2043,503880
2044,504073
2045,504374
2046,504603
2047,504901
2048,505096
2049,505334
2050,505520
2051,505824
2052,506025
2053,506351
2054,506580
2055,506855
2056,507040
2057,507306
2058,507505
2059,507685
2060,508040
2061,508239
2062,508535
2063,508749
2064,509009
2065,509199
2066,509493
2067,509717
2068,509948
2069,510163
2070,510407
2071,510686
2072,510948
2073,511200
2074,511414
2075,511629
2076,511858
2077,512050
2078,512220
2079,512573
2080,512771
2081,513066
2082,513253
2083,513524
2084,513735
2085,514022
2086,514214
2087,514481
2088,514676
2089,514969
2090,515172
2091,515473
2092,515682
2093,515935
2094,516110
2095,516368
2096,516578
2097,516894
2098,517103
2099,517404
2100,517610
2101,517887
2102,518060
2103,518342
2104,518547
2105,518839
2106,519047
2107,519341
2108,519555
2109,519868
2110,520063
2111,520347
2112,520527
2113,520786
2114,520988
2115,521299
2116,521515
2117,521848
2118,522036
2119,522311
2120,522494
2121,522792
2122,522995
2123,523310
2124,523515
2125,523816
2126,524020
2127,524289
2128,524487
2129,524795
2130,524976
2131,525264
2132,525455
2133,525766
2134,525996
2135,526298
2136,526487
2137,526740
2138,526924
2139,527194
2140,527396
2141,527694
2142,527918
2143,528215
2144,528398
2145,528677
2146,528887
2147,529157
2148,529353
2149,529618
2150,529824
2151,530110
2152,530298
2153,530595
2154,530806
2155,531067
2156,531250
2157,531497
2158,531693
2159,532004
2160,532212
2161,532524
2162,532710
2163,532905
2164,533195
2165,533426
2166,533623
2167,533912
2168,534156
2169,534389
2170,534625
2171,534894
2172,535149
2173,535385
2174,535600
2175,535831
2176,536076
2177,536316
2178,536584
2179,536857
2180,537060
2181,537318
2182,537499
2183,537809
2184,538010
2185,538197
2186,538432
2187,538840
2188,539024
2189,539326
2190,539554
2191,539817
2192,540013
2193,540292
2194,540472
2195,540779
2196,541004
2197,541325
2198,541523
2199,541797
2200,541977
2201,542264
2202,542442
2203,542769
2204,543069
2205,543337
2206,543585
2207,543795
2208,544063
2209,544337
2210,544601
2211,544843
2212,545105
2213,545344
2214,545654
2215,545854
2216,546235
2217,546421
2218,546734
2219,547019
2220,547316
2221,547593
2222,547845
2223,548093
2224,548298
2225,548531
2226,548877
2227,549126
2228,549292
2229,549742
2230,549925
2231,550323
2232,550591
2233,550751
2234,551103
2235,551298
2236,551664
2237,551953
2238,552174
2239,552471
2240,552654
2241,552931
2242,553135
2243,553328
2244,553733
2245,553927
2246,554238
2247,554445
2248,554709
2249,554898
2250,555244
2251,555427
2252,555739
2253,555949
2254,556309
2255,556522
2256,556843
2257,557014
2258,557303
2259,557505
2260,557855
2261,558065
2262,558428
2263,558673
2264,558845
2265,559178
2266,559391
2267,559696
2268,559903
2269,560225
2270,560495
2271,560700
2272,561075
2273,561279
2274,561636
2275,561819
2276,562184
2277,562526
2278,562835
2279,563115
2280,563376
2281,563646
2282,563902
2283,564174
2284,564476
2285,564765
2286,565028
2287,565290
2288,565517
2289,565874
2290,566073
2291,566428
2292,566636
2293,567028
2294,567264
2295,567602
2296,567819
2297,567948
2298,568394
2299,568631
2300,568957
2301,569251
2302,569505
2303,569758
2304,569992
2305,570239
2306,570499
2307,570754
2308,570967
2309,571238
2310,571449
2311,571788
2312,571979
2313,572260
2314,572482
2315,572744
2316,572946
2317,573266
2318,573488
2319,573867
2320,574040
2321,574382
2322,574581
2323,574943
2324,575224
2325,575497
2326,575785
2327,576035
2328,576289
2329,576548
2330,576783
2331,577016
2332,577228
2333,577535
2334,577784
2335,578211
2336,578387
2337,578739
2338,578917
2339,579264
2340,579521
2341,579835
2342,580104
2343,580356
2344,580627
2345,580854
2346,581132
2347,581405
2348,581679
2349,581957
2350,582245
2351,582531
2352,582734
2353,583082
2354,583259
2355,583664
2356,583882
2357,584303
2358,584583
2359,584766
2360,585105
2361,585325
2362,585677
2363,585968
2364,586252
2365,586525
2366,586765
2367,586959
2368,587348
2369,587515
2370,587837
2371,588036
2372,588384
2373,588607
2374,588916
2375,589183
2376,589410
2377,589659
2378,589901
2379,590185
2380,590457
2381,590722
2382,590946
2383,591296
2384,591498
2385,591857
2386,592038
2387,592396
2388,592600
2389,593004
2390,593289
2391,593542
2392,593762
2393,594013
2394,594247
2395,594510
2396,594797
2397,595040
2398,595324
2399,595554
2400,595796
2401,596061
2402,596307
2403,596532
2404,596881
2405,597097
2406,597479
2407,597678
2408,598039
2409,598256
2410,598558
2411,598863
2412,599192
2413,599491
2414,599714
2415,599992
2416,600193
2417,600452
2418,600653
2419,601063
2420,601266
2421,601667
2422,601954
2423,602239
2424,602450
2425,602726
2426,602931
2427,603345
2428,603544
2429,603938
2430,604224
2431,604400
2432,604575
2433,604960
2434,605186
2435,605559
2436,605873
2437,606138
2438,606362
2439,606654
2440,606860
2441,607288
2442,607486
2443,607873
2444,608176
2445,608472
2446,608731
2447,608969
2448,609168
2449,609510
2450,609708
2451,610114
2452,610321
2453,610684
2454,610943
2455,611223
2456,611507
2457,611799
2458,612078
2459,612363
2460,612636
2461,612903
2462,613161
2463,613403
2464,613650
2465,613889
2466,614114
2467,614421
2468,614650
2469,615031
2470,615212
2471,615545
2472,615798
2473,616036
2474,616351
2475,616631
2476,616815
2477,617127
2478,617361
2479,617646
2480,617906
2481,618102
2482,618253
2483,618631
2484,618850
2485,619181
2486,619438
2487,619674
2488,619886
2489,620138
2490,620421
2491,620693
2492,620981
2493,621196
2494,621474
2495,621730
2496,621993
2497,622258
2498,622522
2499,622748
2500,623102
2501,623314
2502,623708
2503,623900
2504,624236
2505,624501
2506,624776
2507,625017
2508,625359
2509,625578
2510,625940
2511,626111
2512,626472
2513,626685
2514,627066
2515,627352
2516,627626
2517,627857
2518,628158
2519,628371
2520,628678
2521,628879
2522,629170
2523,629380
2524,629775
2525,629977
2526,630287
2527,630469
2528,630762
2529,630945
2530,631269
2531,631558
2532,631804
2533,632069
2534,632305
2535,632555
2536,632816
2537,633052
2538,633314
2539,633585
2540,633871
2541,634140
2542,634370
2543,634733
2544,634923
2545,635279
2546,635584
2547,635907
2548,636211
2549,636479
2550,636702
2551,636995
2552,637191
2553,637549
2554,637753
2555,638125
2556,638346
2557,638677
2558,638952
2559,639202
2560,639434
2561,639679
2562,639921
2563,640213
2564,640461
2565,640806
2566,640995
2567,641291
2568,641474
2569,641835
2570,642077
2571,642421
2572,642690
2573,642945
2574,643198
2575,643456
2576,643711
2577,643959
2578,644208
2579,644466
2580,644744
2581,645027
2582,645277
2583,645522
2584,645743
2585,645988
2586,646206
2587,646510
2588,646799
2589,647074
2590,647299
2591,647545
2592,647726
2593,648089
2594,648356
2595,648629
2596,648899
2597,649161
2598,649408
2599,649664
2600,649927
